[FILEINFO]
Version	2.0
Type	Profile
Date	2002-01-15 17:37:52

[DITEST]
Serial Number	13ST0246B	
Type	STA-R	

[MEASUREMENT]
Date	2002-01-11 19:03:34	
Measurement duration (s)	95.185	
File Name	I - 5_2002_01_11_19_03_35 916	
Sensor name	Erick 002	
Sensor ID	'200201050546332081614	
Sensor Length (m)	20.00	
Sample Count	125	
Spatial Resolution (m)	1.0	
Sampling Interval (ns)	4	
Gain contrast (%)	100.00	
Averaging	1000	
Pulse Rate (kHz)	8.5	
Frequency start (GHz)	10.5807	
Frequency stop (GHz)	10.9647	
Frequency step set (MHz)	1	
Frequency step actual (MHz)	1.0	
Nb of frequency peak	1	
Sensor configuration	Loop	
Frequency scan mode	Automatic	

[MAINTENANCEINFO]
Internal	ew0KICAiRURGQSBTdGF0dXMgRXJyb3IiOiAiTm8gRXJyb3IiLA0KICAiTGFzZXIgTGltaXQgQ3VycmVudCBNb25pdG9yIjogMC42OTQsDQogICJMYXNlciBDdXJyZW50IE1vbml0b3IiOiAwLjY5NCwNCiAgIkxhc2VyIFBvd2VyIE1vbml0b3IiOiAwLjAwNiwNCiAgIkxhc2VyIFRlbXBlcmF0dXJlIE1vbml0b3IiOiAxLjUzMiwNCiAgIkxhc2VyIFNldCBQb2ludCBUZW1wZXJhdHVyZSBNb25pdG9yIjogMS41MzMsDQogICJQaG90byBEaW9kZSBWYWx1ZSI6IDAuNzgxLA0KICAiRU9NIEJpYXNpbmcgVmFsdWUgKGZpbmUpIjogMS4zLA0KICAiRU9NIEJpYXNpbmcgVmFsdWUgKGRyYWZ0KSI6IDAuODI5LA0KICAiU3lzdGVtIFN0YXR1cyI6ICJbTGFzZXIgRW5hYmxlZCwgRURGQSBFbmFibGVkLCBFREZBIE9uLCBTdGFiaWxpemF0aW9uIEVuYWJsZWQsIFdhdGNoZG9nIEVuYWJsZWQsIEtleSBUdXJuIE9uLCBNZWFzdXJlIE1vZGVdIiwNCiAgIkF0dGVudWF0b3IgUG9zaXRpb24gVmFsdWUiOiAxLjk0OSwNCiAgIlByb2JlIFBvd2VyIFZhbHVlIjogMi4zNjQsDQogICJFT00gUG93ZXIgT3V0cHV0IjogMC4wNDYsDQogICJUaGVybWlzdG9yIFZhbHVlIjogMzAuOTksDQogICJGaXJtd2FyZSBWZXJzaW9uIjogInYgMTMwMjI2LTAiLA0KICAiTGFzZXIgVGVtcGVyYXR1cmUiOiAxLjA5LA0KICAiSW50ZXJuYWwgRmliZXIgR2FpbiI6IDE0LjA3NTgxNTQ3NDYzMjksDQogICJQTE8gUG93ZXIgQW1wbGl0dWRlIjogMy45LA0KICAiQXV0by1DYWxpYnJhdGlvYiBQZXJmb3JtIjogIk5vbmUiLA0KICAiSW50ZXJuYWwgR2FpbiBQZXJmb3JtIjogIk1lYXN1cmVtZW50IENoYW5uZWwiDQp9	

[DATADESCRIPTION]
Nb of measurements	1
Distance unit	m
Data type	Temperature
Data unit	°C
Measurement Mode	Absolute

[DATA]	
0.012	223.06956	
0.172	227.63026	
0.333	227.42260	
0.493	224.45640	
0.653	226.60974	
0.813	227.34594	
0.973	46.32876	
1.133	46.48027	
1.293	46.52573	
1.453	46.39204	
1.613	46.51414	
1.773	46.45888	
1.933	46.79401	
2.093	47.01772	
2.253	46.92948	
2.414	46.92681	
2.574	47.05337	
2.734	46.80470	
2.894	46.21111	
3.054	46.12822	
3.214	45.78685	
3.374	45.77794	
3.534	45.75744	
3.694	45.32339	
3.854	45.24406	
4.014	44.91250	
4.174	44.94726	
4.334	45.15583	
4.494	45.08898	
4.655	44.86170	
4.815	44.87329	
4.975	44.99807	
5.135	45.09789	
5.295	44.89201	
5.455	44.84566	
5.615	46.97761	
5.775	50.59712	
5.935	47.14785	
6.095	43.79038	
6.255	44.47132	
6.415	43.93744	
6.575	43.70927	
6.735	44.09431	
6.896	44.10322	
7.056	43.81801	
7.216	43.99894	
7.376	44.25919	
7.536	44.39912	
7.696	44.60323	
7.856	44.80555	
8.016	44.69325	
8.176	44.62373	
8.336	44.72712	
8.496	44.63621	
8.656	44.35545	
8.816	44.41695	
8.977	44.67097	
9.137	44.47756	
9.297	44.54440	
9.457	44.89111	
9.617	44.69771	
9.777	44.56490	
9.937	44.60769	
10.097	44.80644	
10.257	44.88131	
10.417	44.56579	
10.577	44.58986	
10.737	44.34387	
10.897	44.30197	
11.057	44.31713	
11.218	44.42230	
11.378	44.53014	
11.538	44.25919	
11.698	44.17274	
11.858	44.24315	
12.018	44.12015	
12.178	44.33584	
12.338	44.51499	
12.498	44.35545	
12.658	44.46954	
12.818	44.40715	
12.978	44.30019	
13.138	44.42943	
13.299	44.35723	
13.459	44.54262	
13.619	44.42765	
13.779	44.11748	
13.939	44.20928	
14.099	44.45260	
14.259	44.31534	
14.419	44.38665	
14.579	43.97755	
14.739	43.92496	
14.899	43.90803	
15.059	43.77879	
15.219	43.86168	
15.379	43.78057	
15.540	43.97131	
15.700	43.91337	
15.860	43.79216	
16.020	43.95705	
16.180	43.74581	
16.340	43.71462	
16.500	43.82870	
16.660	43.61212	
16.820	43.57023	
16.980	43.66114	
17.140	43.59340	
17.300	43.54617	
17.460	43.72175	
17.621	43.71551	
17.781	43.69501	
17.941	43.45525	
18.101	43.53636	
18.261	43.44902	
18.421	43.18876	
18.581	43.33939	
18.741	43.55597	
18.901	43.70125	
19.061	43.62816	
19.221	43.77166	
19.381	43.82336	
19.541	43.72353	
19.701	43.92051	
19.862	43.83227	
