[FILEINFO]
Version	2.0
Type	Profile
Date	2002-01-03 06:47:59

[DITEST]
Serial Number	13ST0246B	
Type	STA-R	

[MEASUREMENT]
Date	2002-01-01 00:40:32	
Measurement duration (s)	94.019	
File Name	E - hotspot2_2002_01_02_02_21_10 876	
Sensor name	Erick 002	
Sensor ID	'200201050546332081614	
Sensor Length (m)	20.00	
Sample Count	125	
Spatial Resolution (m)	1.0	
Sampling Interval (ns)	4	
Gain contrast (%)	100.00	
Averaging	1000	
Pulse Rate (kHz)	8.5	
Frequency start (GHz)	10.5647	
Frequency stop (GHz)	10.9567	
Frequency step set (MHz)	1	
Frequency step actual (MHz)	1.0	
Nb of frequency peak	1	
Sensor configuration	Loop	
Frequency scan mode	Automatic	

[MAINTENANCEINFO]
Internal	ew0KICAiRURGQSBTdGF0dXMgRXJyb3IiOiAiTm8gRXJyb3IiLA0KICAiTGFzZXIgTGltaXQgQ3VycmVudCBNb25pdG9yIjogMC42OTMsDQogICJMYXNlciBDdXJyZW50IE1vbml0b3IiOiAwLjY5MywNCiAgIkxhc2VyIFBvd2VyIE1vbml0b3IiOiAwLjAwNywNCiAgIkxhc2VyIFRlbXBlcmF0dXJlIE1vbml0b3IiOiAxLjU0NSwNCiAgIkxhc2VyIFNldCBQb2ludCBUZW1wZXJhdHVyZSBNb25pdG9yIjogMS41NDYsDQogICJQaG90byBEaW9kZSBWYWx1ZSI6IDAuNzg1LA0KICAiRU9NIEJpYXNpbmcgVmFsdWUgKGZpbmUpIjogMS40NDUsDQogICJFT00gQmlhc2luZyBWYWx1ZSAoZHJhZnQpIjogMC44ODIsDQogICJTeXN0ZW0gU3RhdHVzIjogIltMYXNlciBFbmFibGVkLCBFREZBIEVuYWJsZWQsIEVERkEgT24sIFN0YWJpbGl6YXRpb24gRW5hYmxlZCwgV2F0Y2hkb2cgRW5hYmxlZCwgS2V5IFR1cm4gT24sIE1lYXN1cmUgTW9kZV0iLA0KICAiQXR0ZW51YXRvciBQb3NpdGlvbiBWYWx1ZSI6IDEuOTUsDQogICJQcm9iZSBQb3dlciBWYWx1ZSI6IDIuMzYxLA0KICAiRU9NIFBvd2VyIE91dHB1dCI6IDAuMDQ1LA0KICAiVGhlcm1pc3RvciBWYWx1ZSI6IDI3LjkyLA0KICAiRmlybXdhcmUgVmVyc2lvbiI6ICJ2IDEzMDIyNi0wIiwNCiAgIkxhc2VyIFRlbXBlcmF0dXJlIjogMS4xMjcsDQogICJJbnRlcm5hbCBGaWJlciBHYWluIjogMTMuNjY2MzIxNDgwNjI4MywNCiAgIlBMTyBQb3dlciBBbXBsaXR1ZGUiOiAzLjksDQogICJBdXRvLUNhbGlicmF0aW9iIFBlcmZvcm0iOiAiTm9uZSIsDQogICJJbnRlcm5hbCBHYWluIFBlcmZvcm0iOiAiTWVhc3VyZW1lbnQgQ2hhbm5lbCINCn0=	

[DATADESCRIPTION]
Nb of measurements	1
Distance unit	m
Data type	Temperature
Data unit	°C
Measurement Mode	Absolute

[DATA]	
0.012	219.00441	
0.172	220.87789	
0.333	220.05167	
0.493	217.53290	
0.653	220.06772	
0.813	221.14617	
0.973	42.98020	
1.133	43.19767	
1.293	43.09696	
1.453	42.67805	
1.613	42.58447	
1.773	42.48286	
1.933	42.59695	
2.093	42.72797	
2.253	42.69053	
2.414	42.59338	
2.574	42.63438	
2.734	42.64953	
2.894	42.42315	
3.054	42.17804	
3.214	42.06129	
3.374	41.84649	
3.534	41.45432	
3.694	40.79210	
3.854	40.47836	
4.014	40.19315	
4.174	40.14146	
4.334	40.32685	
4.494	40.56660	
4.655	40.37230	
4.815	40.59780	
4.975	42.59249	
5.135	48.24947	
5.295	47.82879	
5.455	40.54610	
5.615	42.66558	
5.775	42.02920	
5.935	39.13431	
6.095	38.09151	
6.255	39.33396	
6.415	41.17713	
6.575	40.17265	
6.735	39.95251	
6.896	40.01222	
7.056	40.10848	
7.216	40.27248	
7.376	40.43558	
7.536	40.53630	
7.696	40.85360	
7.856	41.03096	
8.016	40.70742	
8.176	40.81260	
8.336	40.74129	
8.496	40.65217	
8.656	40.52560	
8.816	40.63167	
8.977	40.73505	
9.137	40.69227	
9.297	40.81884	
9.457	40.72436	
9.617	40.82864	
9.777	40.59691	
9.937	40.46500	
10.097	40.90440	
10.257	41.04433	
10.417	40.49084	
10.577	40.48282	
10.737	40.58710	
10.897	40.17265	
11.057	40.32863	
11.218	40.56215	
11.378	40.25109	
11.538	40.05322	
11.698	40.29833	
11.858	40.24039	
12.018	40.05857	
12.178	40.31704	
12.338	40.49263	
12.498	40.20118	
12.658	40.47302	
12.818	40.54343	
12.978	40.17444	
13.138	40.40974	
13.299	40.55323	
13.459	40.38211	
13.619	40.07729	
13.779	39.87140	
13.939	39.99529	
14.099	39.94894	
14.259	40.30902	
14.419	40.29565	
14.579	39.77247	
14.739	39.77603	
14.899	39.88120	
15.059	39.52291	
15.219	39.54786	
15.379	39.74662	
15.540	39.69582	
15.700	39.70027	
15.860	39.70829	
16.020	39.73682	
16.180	39.46765	
16.340	39.67443	
16.500	39.79831	
16.660	39.43913	
16.820	39.43200	
16.980	39.40615	
17.140	39.39278	
17.300	39.47656	
17.460	39.49617	
17.621	39.47389	
17.781	39.49706	
17.941	39.45071	
18.101	39.38030	
18.261	39.38476	
18.421	39.12539	
18.581	39.22433	
18.741	39.57460	
18.901	39.70829	
19.061	39.57906	
19.221	39.80099	
19.381	39.96231	
19.541	39.79653	
19.701	39.85268	
19.862	39.94449	
