[FILEINFO]
Version	2.0
Type	Profile
Date	2002-01-01 03:31:29

[DITEST]
Serial Number	13ST0246B	
Type	STA-R	

[MEASUREMENT]
Date	2002-01-01 00:44:32
Measurement duration (s)	180.813	
File Name	TEST 003_2022_05_03_14_51_15 456	
Sensor name	test_masfo_bacurau	
Sensor ID	'202109090831347672603	
Sensor Length (m)	51.02	
Sample Count	125	
Spatial Resolution (m)	1.0	
Sampling Interval (ns)	4	
Gain contrast (%)	100.00	
Averaging	1000	
Pulse Rate (kHz)	9.2	
Frequency start (GHz)	10.6087	
Frequency stop (GHz)	10.7367	
Frequency step set (MHz)	2	
Frequency step actual (MHz)	2.0	
Nb of frequency peak	1	
Sensor configuration	Loop	
Frequency scan mode	Automatic	

[MAINTENANCEINFO]
Internal	ew0KICAiRURGQSBTdGF0dXMgRXJyb3IiOiAiTm8gRXJyb3IiLA0KICAiTGFzZXIgTGltaXQgQ3VycmVudCBNb25pdG9yIjogMC42OTQsDQogICJMYXNlciBDdXJyZW50IE1vbml0b3IiOiAwLjY5NCwNCiAgIkxhc2VyIFBvd2VyIE1vbml0b3IiOiAwLjAwNSwNCiAgIkxhc2VyIFRlbXBlcmF0dXJlIE1vbml0b3IiOiAxLjU0LA0KICAiTGFzZXIgU2V0IFBvaW50IFRlbXBlcmF0dXJlIE1vbml0b3IiOiAxLjU0MiwNCiAgIlBob3RvIERpb2RlIFZhbHVlIjogMC43NjEsDQogICJFT00gQmlhc2luZyBWYWx1ZSAoZmluZSkiOiAxLjQ1OSwNCiAgIkVPTSBCaWFzaW5nIFZhbHVlIChkcmFmdCkiOiAwLjkyOCwNCiAgIlN5c3RlbSBTdGF0dXMiOiAiW0xhc2VyIEVuYWJsZWQsIEVERkEgRW5hYmxlZCwgRURGQSBPbiwgU3RhYmlsaXphdGlvbiBFbmFibGVkLCBXYXRjaGRvZyBFbmFibGVkLCBLZXkgVHVybiBPbiwgTWVhc3VyZSBNb2RlXSIsDQogICJBdHRlbnVhdG9yIFBvc2l0aW9uIFZhbHVlIjogMS45MjYsDQogICJQcm9iZSBQb3dlciBWYWx1ZSI6IDIuMzM0LA0KICAiRU9NIFBvd2VyIE91dHB1dCI6IDAuMDQ4LA0KICAiVGhlcm1pc3RvciBWYWx1ZSI6IDMzLjY4LA0KICAiRmlybXdhcmUgVmVyc2lvbiI6ICJ2IDEzMDIyNi0wIiwNCiAgIkxhc2VyIFRlbXBlcmF0dXJlIjogMS4xMTcsDQogICJJbnRlcm5hbCBGaWJlciBHYWluIjogMTMuODE2MDEyOTIwNzE5NiwNCiAgIlBMTyBQb3dlciBBbXBsaXR1ZGUiOiAzLjksDQogICJBdXRvLUNhbGlicmF0aW9iIFBlcmZvcm0iOiAiTm9uZSIsDQogICJJbnRlcm5hbCBHYWluIFBlcmZvcm0iOiAiTWVhc3VyZW1lbnQgQ2hhbm5lbCINCn0=	

[DATADESCRIPTION]
Nb of measurements	1
Distance unit	m
Data type	Temperature
Data unit	°C
Measurement Mode	Absolute

[DATA]	
3.299	22.38026	
3.707	22.32542	
4.115	22.13802	
4.524	21.94014	
4.932	21.74177	
5.341	21.64974	
5.749	22.04265	
6.157	24.14503	
6.566	30.69916	
6.974	35.05697	
7.383	34.60541	
7.791	33.70848	
8.199	28.94010	
8.608	22.25962	
9.016	21.22488	
9.424	21.56820	
9.833	21.44422	
10.241	21.27161	
10.650	21.49143	
11.058	21.57917	
11.466	21.28925	
11.875	21.33646	
12.283	21.47140	
12.691	21.35935	
13.100	21.46950	
13.508	21.66691	
13.917	21.44709	
14.325	21.31309	
14.733	21.59300	
15.142	21.58441	
15.550	21.43803	
15.959	21.60969	
16.367	21.53530	
16.775	21.32788	
17.184	21.33074	
17.592	21.33932	
18.000	21.24205	
18.409	21.41418	
18.817	21.56439	
19.226	21.27447	
19.634	21.46330	
20.042	21.56391	
20.451	21.20390	
20.859	21.35744	
21.267	21.55056	
21.676	21.35601	
22.084	21.25206	
22.493	21.44565	
22.901	21.22250	
23.309	21.13476	
23.718	21.46854	
24.126	21.41704	
24.535	21.25730	
24.943	21.45758	
25.351	21.32549	
25.760	21.19865	
26.168	21.33789	
26.576	21.27304	
26.985	21.05322	
27.393	21.21677	
27.802	21.40417	
28.210	21.28019	
28.618	21.34027	
29.027	21.37556	
29.435	20.91064	
