[FILEINFO]
Version	2.0
Type	Profile
Date	2002-01-15 18:01:05

[DITEST]
Serial Number	13ST0246B	
Type	STA-R	

[MEASUREMENT]
Date	2002-01-11 20:30:12	
Measurement duration (s)	95.973	
File Name	I - 90_2002_01_11_20_30_13 698	
Sensor name	Erick 002	
Sensor ID	'200201050546332081614	
Sensor Length (m)	20.00	
Sample Count	125	
Spatial Resolution (m)	1.0	
Sampling Interval (ns)	4	
Gain contrast (%)	100.00	
Averaging	1000	
Pulse Rate (kHz)	8.5	
Frequency start (GHz)	10.5967	
Frequency stop (GHz)	10.9657	
Frequency step set (MHz)	1	
Frequency step actual (MHz)	1.0	
Nb of frequency peak	1	
Sensor configuration	Loop	
Frequency scan mode	Automatic	

[MAINTENANCEINFO]
Internal	ew0KICAiRURGQSBTdGF0dXMgRXJyb3IiOiAiTm8gRXJyb3IiLA0KICAiTGFzZXIgTGltaXQgQ3VycmVudCBNb25pdG9yIjogMC42OTUsDQogICJMYXNlciBDdXJyZW50IE1vbml0b3IiOiAwLjY5NSwNCiAgIkxhc2VyIFBvd2VyIE1vbml0b3IiOiAwLjAwNSwNCiAgIkxhc2VyIFRlbXBlcmF0dXJlIE1vbml0b3IiOiAxLjUyNiwNCiAgIkxhc2VyIFNldCBQb2ludCBUZW1wZXJhdHVyZSBNb25pdG9yIjogMS41MjcsDQogICJQaG90byBEaW9kZSBWYWx1ZSI6IDAuNzkzLA0KICAiRU9NIEJpYXNpbmcgVmFsdWUgKGZpbmUpIjogMS4yMTIsDQogICJFT00gQmlhc2luZyBWYWx1ZSAoZHJhZnQpIjogMC44MjksDQogICJTeXN0ZW0gU3RhdHVzIjogIltMYXNlciBFbmFibGVkLCBFREZBIEVuYWJsZWQsIEVERkEgT24sIFN0YWJpbGl6YXRpb24gRW5hYmxlZCwgV2F0Y2hkb2cgRW5hYmxlZCwgS2V5IFR1cm4gT24sIE1lYXN1cmUgTW9kZV0iLA0KICAiQXR0ZW51YXRvciBQb3NpdGlvbiBWYWx1ZSI6IDEuOTQ4LA0KICAiUHJvYmUgUG93ZXIgVmFsdWUiOiAyLjM2OSwNCiAgIkVPTSBQb3dlciBPdXRwdXQiOiAwLjA0NCwNCiAgIlRoZXJtaXN0b3IgVmFsdWUiOiAzMy41LA0KICAiRmlybXdhcmUgVmVyc2lvbiI6ICJ2IDEzMDIyNi0wIiwNCiAgIkxhc2VyIFRlbXBlcmF0dXJlIjogMS4wNzQsDQogICJJbnRlcm5hbCBGaWJlciBHYWluIjogMTMuNDg5NTI0ODg4NTIwMiwNCiAgIlBMTyBQb3dlciBBbXBsaXR1ZGUiOiAzLjksDQogICJBdXRvLUNhbGlicmF0aW9iIFBlcmZvcm0iOiAiTm9uZSIsDQogICJJbnRlcm5hbCBHYWluIFBlcmZvcm0iOiAiTWVhc3VyZW1lbnQgQ2hhbm5lbCINCn0=	

[DATADESCRIPTION]
Nb of measurements	1
Distance unit	m
Data type	Temperature
Data unit	°C
Measurement Mode	Absolute

[DATA]	
0.012	224.08474	
0.172	230.52694	
0.333	230.44851	
0.493	227.23453	
0.653	229.49840	
0.813	230.60270	
0.973	47.98744	
1.133	48.30117	
1.293	48.22452	
1.453	48.13717	
1.613	48.23521	
1.773	48.09350	
1.933	48.14965	
2.093	48.38138	
2.253	48.34484	
2.414	48.45536	
2.574	48.53558	
2.734	48.31275	
2.894	47.80829	
3.054	47.84305	
3.214	47.76105	
3.374	47.77085	
3.534	47.92148	
3.694	47.67816	
3.854	47.58279	
4.014	47.33769	
4.174	47.00702	
4.334	47.01148	
4.494	46.91789	
4.655	47.00524	
4.815	47.02931	
4.975	47.00881	
5.135	46.80203	
5.295	46.34034	
5.455	45.46154	
5.615	44.85190	
5.775	44.15580	
5.935	44.95261	
6.095	45.48204	
6.255	45.51947	
6.415	45.40538	
6.575	45.61127	
6.735	46.32073	
6.896	46.14159	
7.056	45.99987	
7.216	45.91698	
7.376	46.06404	
7.536	46.29489	
7.696	46.36173	
7.856	46.29578	
8.016	46.16743	
8.176	46.13000	
8.336	46.00344	
8.496	45.73783	
8.656	45.58186	
8.816	45.65405	
8.977	45.84211	
9.137	45.88490	
9.297	46.02750	
9.457	46.09435	
9.617	46.00700	
9.777	45.97402	
9.937	45.81805	
10.097	46.15139	
10.257	46.23339	
10.417	45.75388	
10.577	45.57919	
10.737	45.78864	
10.897	45.57562	
11.057	45.78418	
11.218	45.84211	
11.378	45.66029	
11.538	45.49362	
11.698	45.52393	
11.858	45.86796	
12.018	45.49273	
12.178	45.54710	
12.338	45.81716	
12.498	45.67990	
12.658	45.94194	
12.818	45.92144	
12.978	45.72714	
13.138	45.86261	
13.299	45.83498	
13.459	46.02037	
13.619	45.81983	
13.779	45.51769	
13.939	45.61751	
14.099	45.93481	
14.259	46.04889	
14.419	45.91342	
14.579	45.30378	
14.739	45.47045	
14.899	45.41341	
15.059	45.25030	
15.219	45.46332	
15.379	45.47401	
15.540	45.39915	
15.700	45.41430	
15.860	45.54353	
16.020	45.41341	
16.180	45.23782	
16.340	45.48293	
16.500	45.50432	
16.660	45.24584	
16.820	45.22713	
16.980	45.24228	
17.140	45.35102	
17.300	45.12017	
17.460	45.29041	
17.621	45.31893	
17.781	45.41519	
17.941	45.01946	
18.101	45.12017	
18.261	45.20217	
18.421	44.74138	
18.581	44.92587	
18.741	45.18256	
18.901	45.33676	
19.061	45.33052	
19.221	45.47580	
19.381	45.47134	
19.541	45.46332	
19.701	45.52125	
19.862	45.50432	
