[FILEINFO]
Version	2.0
Type	Profile
Date	2002-01-15 17:36:35

[DITEST]
Serial Number	13ST0246B	
Type	STA-R	

[MEASUREMENT]
Date	2002-01-11 20:20:11	
Measurement duration (s)	94.132	
File Name	I - 80_2002_01_11_20_20_11 929	
Sensor name	Erick 002	
Sensor ID	'200201050546332081614	
Sensor Length (m)	20.00	
Sample Count	125	
Spatial Resolution (m)	1.0	
Sampling Interval (ns)	4	
Gain contrast (%)	100.00	
Averaging	1000	
Pulse Rate (kHz)	8.5	
Frequency start (GHz)	10.5967	
Frequency stop (GHz)	10.9647	
Frequency step set (MHz)	1	
Frequency step actual (MHz)	1.0	
Nb of frequency peak	1	
Sensor configuration	Loop	
Frequency scan mode	Automatic	

[MAINTENANCEINFO]
Internal	ew0KICAiRURGQSBTdGF0dXMgRXJyb3IiOiAiTm8gRXJyb3IiLA0KICAiTGFzZXIgTGltaXQgQ3VycmVudCBNb25pdG9yIjogMC42OTQsDQogICJMYXNlciBDdXJyZW50IE1vbml0b3IiOiAwLjY5NCwNCiAgIkxhc2VyIFBvd2VyIE1vbml0b3IiOiAwLjAwNSwNCiAgIkxhc2VyIFRlbXBlcmF0dXJlIE1vbml0b3IiOiAxLjUyNiwNCiAgIkxhc2VyIFNldCBQb2ludCBUZW1wZXJhdHVyZSBNb25pdG9yIjogMS41MjcsDQogICJQaG90byBEaW9kZSBWYWx1ZSI6IDAuNzg5LA0KICAiRU9NIEJpYXNpbmcgVmFsdWUgKGZpbmUpIjogMS4yNDIsDQogICJFT00gQmlhc2luZyBWYWx1ZSAoZHJhZnQpIjogMC44MjksDQogICJTeXN0ZW0gU3RhdHVzIjogIltMYXNlciBFbmFibGVkLCBFREZBIEVuYWJsZWQsIEVERkEgT24sIFN0YWJpbGl6YXRpb24gRW5hYmxlZCwgV2F0Y2hkb2cgRW5hYmxlZCwgS2V5IFR1cm4gT24sIE1lYXN1cmUgTW9kZV0iLA0KICAiQXR0ZW51YXRvciBQb3NpdGlvbiBWYWx1ZSI6IDEuOTQ4LA0KICAiUHJvYmUgUG93ZXIgVmFsdWUiOiAyLjM1NywNCiAgIkVPTSBQb3dlciBPdXRwdXQiOiAwLjA0NywNCiAgIlRoZXJtaXN0b3IgVmFsdWUiOiAzMy4zLA0KICAiRmlybXdhcmUgVmVyc2lvbiI6ICJ2IDEzMDIyNi0wIiwNCiAgIkxhc2VyIFRlbXBlcmF0dXJlIjogMS4wNzQsDQogICJJbnRlcm5hbCBGaWJlciBHYWluIjogMTMuMTcyNDg4NzEzMDI4NCwNCiAgIlBMTyBQb3dlciBBbXBsaXR1ZGUiOiAzLjksDQogICJBdXRvLUNhbGlicmF0aW9iIFBlcmZvcm0iOiAiTm9uZSIsDQogICJJbnRlcm5hbCBHYWluIFBlcmZvcm0iOiAiTWVhc3VyZW1lbnQgQ2hhbm5lbCINCn0=	

[DATADESCRIPTION]
Nb of measurements	1
Distance unit	m
Data type	Temperature
Data unit	°C
Measurement Mode	Absolute

[DATA]	
0.012	227.50103	
0.172	231.18203	
0.333	230.85048	
0.493	227.53311	
0.653	229.37362	
0.813	229.62852	
0.973	47.77174	
1.133	48.01417	
1.293	47.88494	
1.453	47.87959	
1.613	47.99278	
1.773	47.90009	
1.933	48.17728	
2.093	48.29760	
2.253	48.24413	
2.414	48.30473	
2.574	48.37693	
2.734	48.14608	
2.894	47.73609	
3.054	47.84840	
3.214	47.64340	
3.374	47.47138	
3.534	47.46782	
3.694	47.12111	
3.854	47.11487	
4.014	46.89026	
4.174	46.76905	
4.334	46.70220	
4.494	46.89026	
4.655	46.98831	
4.815	47.01861	
4.975	47.05693	
5.135	46.98831	
5.295	46.36441	
5.455	45.88935	
5.615	45.34567	
5.775	44.47132	
5.935	45.41252	
6.095	45.85727	
6.255	45.66475	
6.415	45.73338	
6.575	45.87866	
6.735	46.35015	
6.896	46.16298	
7.056	45.99542	
7.216	46.04978	
7.376	46.38847	
7.536	46.28954	
7.696	46.28865	
7.856	46.21289	
8.016	46.38402	
8.176	46.23517	
8.336	46.12733	
8.496	46.11841	
8.656	45.92857	
8.816	45.91342	
8.977	46.19774	
9.137	46.04354	
9.297	46.06761	
9.457	46.34569	
9.617	46.29667	
9.777	46.14426	
9.937	46.13000	
10.097	46.44106	
10.257	46.36352	
10.417	46.01859	
10.577	46.11930	
10.737	45.84479	
10.897	45.77349	
11.057	45.77705	
11.218	45.83944	
11.378	45.92055	
11.538	45.73605	
11.698	45.84033	
11.858	45.84479	
12.018	45.80022	
12.178	45.92679	
12.338	45.98294	
12.498	45.96333	
12.658	45.99274	
12.818	46.09346	
12.978	45.81983	
13.138	46.08633	
13.299	45.98918	
13.459	46.02661	
13.619	45.87777	
13.779	45.66921	
13.939	45.77170	
14.099	45.74318	
14.259	45.91966	
14.419	45.87777	
14.579	45.43569	
14.739	45.46510	
14.899	45.41341	
15.059	45.16385	
15.219	45.33230	
15.379	45.35458	
15.540	45.17098	
15.700	45.31982	
15.860	45.51590	
16.020	45.33765	
16.180	45.02035	
16.340	45.29843	
16.500	45.30021	
16.660	45.12285	
16.820	45.06937	
16.980	45.18613	
17.140	45.23426	
17.300	45.02302	
17.460	45.15672	
17.621	45.19148	
17.781	45.34567	
17.941	45.03550	
18.101	45.03015	
18.261	45.18167	
18.421	44.71018	
18.581	44.90359	
18.741	45.24941	
18.901	45.22178	
19.061	45.30021	
19.221	45.45173	
19.381	45.53195	
19.541	45.31537	
19.701	45.52571	
19.862	45.40004	
