[FILEINFO]
Version	2.0
Type	Profile
Date	2002-01-15 17:36:10

[DITEST]
Serial Number	13ST0246B	
Type	STA-R	

[MEASUREMENT]
Date	2002-01-11 20:01:11	
Measurement duration (s)	94.475	
File Name	I - 60_2002_01_11_20_01_12 520	
Sensor name	Erick 002	
Sensor ID	'200201050546332081614	
Sensor Length (m)	20.00	
Sample Count	125	
Spatial Resolution (m)	1.0	
Sampling Interval (ns)	4	
Gain contrast (%)	100.00	
Averaging	1000	
Pulse Rate (kHz)	8.5	
Frequency start (GHz)	10.5807	
Frequency stop (GHz)	10.9647	
Frequency step set (MHz)	1	
Frequency step actual (MHz)	1.0	
Nb of frequency peak	1	
Sensor configuration	Loop	
Frequency scan mode	Automatic	

[MAINTENANCEINFO]
Internal	ew0KICAiRURGQSBTdGF0dXMgRXJyb3IiOiAiTm8gRXJyb3IiLA0KICAiTGFzZXIgTGltaXQgQ3VycmVudCBNb25pdG9yIjogMC42OTQsDQogICJMYXNlciBDdXJyZW50IE1vbml0b3IiOiAwLjY5NCwNCiAgIkxhc2VyIFBvd2VyIE1vbml0b3IiOiAwLjAwNiwNCiAgIkxhc2VyIFRlbXBlcmF0dXJlIE1vbml0b3IiOiAxLjUzMiwNCiAgIkxhc2VyIFNldCBQb2ludCBUZW1wZXJhdHVyZSBNb25pdG9yIjogMS41MzMsDQogICJQaG90byBEaW9kZSBWYWx1ZSI6IDAuNzk1LA0KICAiRU9NIEJpYXNpbmcgVmFsdWUgKGZpbmUpIjogMS4yNzYsDQogICJFT00gQmlhc2luZyBWYWx1ZSAoZHJhZnQpIjogMC44MjksDQogICJTeXN0ZW0gU3RhdHVzIjogIltMYXNlciBFbmFibGVkLCBFREZBIEVuYWJsZWQsIEVERkEgT24sIFN0YWJpbGl6YXRpb24gRW5hYmxlZCwgV2F0Y2hkb2cgRW5hYmxlZCwgS2V5IFR1cm4gT24sIE1lYXN1cmUgTW9kZV0iLA0KICAiQXR0ZW51YXRvciBQb3NpdGlvbiBWYWx1ZSI6IDEuOTQ4LA0KICAiUHJvYmUgUG93ZXIgVmFsdWUiOiAyLjM3NCwNCiAgIkVPTSBQb3dlciBPdXRwdXQiOiAwLjA0NywNCiAgIlRoZXJtaXN0b3IgVmFsdWUiOiAzMi43OCwNCiAgIkZpcm13YXJlIFZlcnNpb24iOiAidiAxMzAyMjYtMCIsDQogICJMYXNlciBUZW1wZXJhdHVyZSI6IDEuMDc0LA0KICAiSW50ZXJuYWwgRmliZXIgR2FpbiI6IDEzLjM1NDYxMTU2Njc1MTMsDQogICJQTE8gUG93ZXIgQW1wbGl0dWRlIjogMy45LA0KICAiQXV0by1DYWxpYnJhdGlvYiBQZXJmb3JtIjogIk1lYXN1cmVtZW50IENoYW5uZWwiLA0KICAiSW50ZXJuYWwgR2FpbiBQZXJmb3JtIjogIk1lYXN1cmVtZW50IENoYW5uZWwiDQp9	

[DATADESCRIPTION]
Nb of measurements	1
Distance unit	m
Data type	Temperature
Data unit	°C
Measurement Mode	Absolute

[DATA]	
0.012	225.07139	
0.172	229.48146	
0.333	229.24082	
0.493	226.27819	
0.653	228.27110	
0.813	229.31123	
0.973	47.20756	
1.133	47.41256	
1.293	47.19330	
1.453	47.22182	
1.613	47.17013	
1.773	47.16300	
1.933	47.29936	
2.093	47.30917	
2.253	47.38849	
2.414	47.47762	
2.574	47.70936	
2.734	47.51684	
2.894	46.92235	
3.054	46.76638	
3.214	46.67636	
3.374	46.72716	
3.534	46.81896	
3.694	46.53642	
3.854	46.46156	
4.014	46.31182	
4.174	46.07296	
4.334	45.99363	
4.494	46.10415	
4.655	46.08633	
4.815	46.18437	
4.975	46.23963	
5.135	46.02037	
5.295	45.58097	
5.455	44.80466	
5.615	44.72801	
5.775	44.69860	
5.935	44.77792	
6.095	44.58897	
6.255	44.75920	
6.415	45.02392	
6.575	44.91340	
6.735	45.50075	
6.896	45.27793	
7.056	45.05244	
7.216	45.17900	
7.376	45.40628	
7.536	45.66297	
7.696	45.88668	
7.856	45.82340	
8.016	45.54799	
8.176	45.63444	
8.336	45.55690	
8.496	45.55779	
8.656	45.43034	
8.816	45.35280	
8.977	45.52036	
9.137	45.58542	
9.297	45.60949	
9.457	45.75031	
9.617	45.64247	
9.777	45.61038	
9.937	45.45530	
10.097	45.76814	
10.257	45.65762	
10.417	45.33765	
10.577	45.26902	
10.737	45.21822	
10.897	45.14959	
11.057	45.14959	
11.218	45.21287	
11.378	45.28506	
11.538	45.18256	
11.698	45.17098	
11.858	45.34567	
12.018	45.22445	
12.178	45.34032	
12.338	45.35102	
12.498	45.20306	
12.658	45.34745	
12.818	45.26100	
12.978	45.09433	
13.138	45.26813	
13.299	45.26367	
13.459	45.24941	
13.619	45.06759	
13.779	44.73068	
13.939	44.90894	
14.099	45.02302	
14.259	45.13711	
14.419	45.13711	
14.579	44.69503	
14.739	44.66027	
14.899	44.51677	
15.059	44.50875	
15.219	44.57471	
15.379	44.60947	
15.540	44.57203	
15.700	44.52301	
15.860	44.63710	
16.020	44.57025	
16.180	44.40715	
16.340	44.46419	
16.500	44.55599	
16.660	44.49360	
16.820	44.27969	
16.980	44.52658	
17.140	44.49271	
17.300	44.59521	
17.460	44.59253	
17.621	44.57471	
17.781	44.71999	
17.941	44.32426	
18.101	44.51499	
18.261	44.48469	
18.421	44.41339	
18.581	44.53460	
18.741	44.70573	
18.901	44.92855	
19.061	44.83496	
19.221	45.01857	
19.381	44.99985	
19.541	44.84477	
19.701	44.92855	
19.862	44.90003	
