[FILEINFO]
Version	2.0
Type	Profile
Date	2002-01-15 17:35:19

[DITEST]
Serial Number	13ST0246B	
Type	STA-R	

[MEASUREMENT]
Date	2002-01-11 19:29:39	
Measurement duration (s)	95.995	
File Name	I - 30_2002_01_11_19_29_40 455	
Sensor name	Erick 002	
Sensor ID	'200201050546332081614	
Sensor Length (m)	20.00	
Sample Count	125	
Spatial Resolution (m)	1.0	
Sampling Interval (ns)	4	
Gain contrast (%)	100.00	
Averaging	1000	
Pulse Rate (kHz)	8.5	
Frequency start (GHz)	10.5807	
Frequency stop (GHz)	10.9647	
Frequency step set (MHz)	1	
Frequency step actual (MHz)	1.0	
Nb of frequency peak	1	
Sensor configuration	Loop	
Frequency scan mode	Automatic	

[MAINTENANCEINFO]
Internal	ew0KICAiRURGQSBTdGF0dXMgRXJyb3IiOiAiTm8gRXJyb3IiLA0KICAiTGFzZXIgTGltaXQgQ3VycmVudCBNb25pdG9yIjogMC42OTQsDQogICJMYXNlciBDdXJyZW50IE1vbml0b3IiOiAwLjY5NCwNCiAgIkxhc2VyIFBvd2VyIE1vbml0b3IiOiAwLjAwOCwNCiAgIkxhc2VyIFRlbXBlcmF0dXJlIE1vbml0b3IiOiAxLjUzMiwNCiAgIkxhc2VyIFNldCBQb2ludCBUZW1wZXJhdHVyZSBNb25pdG9yIjogMS41MzMsDQogICJQaG90byBEaW9kZSBWYWx1ZSI6IDAuNzgyLA0KICAiRU9NIEJpYXNpbmcgVmFsdWUgKGZpbmUpIjogMS4yNjgsDQogICJFT00gQmlhc2luZyBWYWx1ZSAoZHJhZnQpIjogMC44MjksDQogICJTeXN0ZW0gU3RhdHVzIjogIltMYXNlciBFbmFibGVkLCBFREZBIEVuYWJsZWQsIEVERkEgT24sIFN0YWJpbGl6YXRpb24gRW5hYmxlZCwgV2F0Y2hkb2cgRW5hYmxlZCwgS2V5IFR1cm4gT24sIE1lYXN1cmUgTW9kZV0iLA0KICAiQXR0ZW51YXRvciBQb3NpdGlvbiBWYWx1ZSI6IDEuOTQ4LA0KICAiUHJvYmUgUG93ZXIgVmFsdWUiOiAyLjM4MywNCiAgIkVPTSBQb3dlciBPdXRwdXQiOiAwLjA0NiwNCiAgIlRoZXJtaXN0b3IgVmFsdWUiOiAzMS45OSwNCiAgIkZpcm13YXJlIFZlcnNpb24iOiAidiAxMzAyMjYtMCIsDQogICJMYXNlciBUZW1wZXJhdHVyZSI6IDEuMDksDQogICJJbnRlcm5hbCBGaWJlciBHYWluIjogMTQuMDY0MTMyODg4NzE4NCwNCiAgIlBMTyBQb3dlciBBbXBsaXR1ZGUiOiAzLjksDQogICJBdXRvLUNhbGlicmF0aW9iIFBlcmZvcm0iOiAiTm9uZSIsDQogICJJbnRlcm5hbCBHYWluIFBlcmZvcm0iOiAiTWVhc3VyZW1lbnQgQ2hhbm5lbCINCn0=	

[DATADESCRIPTION]
Nb of measurements	1
Distance unit	m
Data type	Temperature
Data unit	°C
Measurement Mode	Absolute

[DATA]	
0.012	224.49473	
0.172	228.45738	
0.333	228.20336	
0.493	225.24519	
0.653	227.54203	
0.813	228.28625	
0.973	47.15854	
1.133	47.15676	
1.293	46.81896	
1.453	47.10774	
1.613	47.03644	
1.773	47.14250	
1.933	47.35641	
2.093	47.45890	
2.253	47.50703	
2.414	47.53288	
2.574	47.61666	
2.734	47.30917	
2.894	46.84481	
3.054	46.70933	
3.214	46.56584	
3.374	46.61218	
3.534	46.63892	
3.694	46.31182	
3.854	46.31806	
4.014	46.02839	
4.174	45.89648	
4.334	45.77972	
4.494	45.68881	
4.655	45.66207	
4.815	45.55245	
4.975	45.67634	
5.135	45.69416	
5.295	45.21287	
5.455	44.59432	
5.615	45.43391	
5.775	46.82609	
5.935	45.67277	
6.095	44.22889	
6.255	44.50964	
6.415	44.51945	
6.575	44.40982	
6.735	44.80377	
6.896	44.76901	
7.056	44.54530	
7.216	44.65581	
7.376	44.85279	
7.536	45.21287	
7.696	45.25387	
7.856	45.29308	
8.016	45.20217	
8.176	45.11304	
8.336	45.24228	
8.496	45.11750	
8.656	44.86081	
8.816	44.90270	
8.977	45.02837	
9.137	45.07294	
9.297	45.14335	
9.457	45.41875	
9.617	45.16563	
9.777	45.17543	
9.937	45.22000	
10.097	45.26634	
10.257	45.34745	
10.417	44.97668	
10.577	44.99896	
10.737	44.98470	
10.897	44.89201	
11.057	44.86883	
11.218	44.92944	
11.378	44.97311	
11.538	44.74138	
11.698	44.75207	
11.858	44.81535	
12.018	44.68523	
12.178	44.79931	
12.338	44.96420	
12.498	44.92053	
12.658	45.06759	
12.818	45.01589	
12.978	44.82248	
13.138	45.07561	
13.299	45.14780	
13.459	45.21465	
13.619	44.96955	
13.779	44.71910	
13.939	44.81090	
14.099	45.03105	
14.259	45.16296	
14.419	45.02748	
14.579	44.67453	
14.739	44.64512	
14.899	44.57827	
15.059	44.53549	
15.219	44.58273	
15.379	44.58629	
15.540	44.68434	
15.700	44.55332	
15.860	44.56758	
16.020	44.52925	
16.180	44.43478	
16.340	44.54708	
16.500	44.53282	
16.660	44.46686	
16.820	44.35456	
16.980	44.37952	
17.140	44.41160	
17.300	44.36615	
17.460	44.41249	
17.621	44.49360	
17.781	44.59521	
17.941	44.21730	
18.101	44.43656	
18.261	44.30376	
18.421	44.12372	
18.581	44.08183	
18.741	44.46775	
18.901	44.54530	
19.061	44.48647	
19.221	44.65849	
19.381	44.72623	
19.541	44.55153	
19.701	44.82783	
19.862	44.71820	
