[FILEINFO]
Version	2.0
Type	Profile
Date	2002-01-15 17:34:55

[DITEST]
Serial Number	13ST0246B	
Type	STA-R	

[MEASUREMENT]
Date	2002-01-11 19:14:37	
Measurement duration (s)	95.226	
File Name	I - 15_2002_01_11_19_14_38 751	
Sensor name	Erick 002	
Sensor ID	'200201050546332081614	
Sensor Length (m)	20.00	
Sample Count	125	
Spatial Resolution (m)	1.0	
Sampling Interval (ns)	4	
Gain contrast (%)	100.00	
Averaging	1000	
Pulse Rate (kHz)	8.5	
Frequency start (GHz)	10.5807	
Frequency stop (GHz)	10.9647	
Frequency step set (MHz)	1	
Frequency step actual (MHz)	1.0	
Nb of frequency peak	1	
Sensor configuration	Loop	
Frequency scan mode	Automatic	

[MAINTENANCEINFO]
Internal	ew0KICAiRURGQSBTdGF0dXMgRXJyb3IiOiAiTm8gRXJyb3IiLA0KICAiTGFzZXIgTGltaXQgQ3VycmVudCBNb25pdG9yIjogMC42OTQsDQogICJMYXNlciBDdXJyZW50IE1vbml0b3IiOiAwLjY5NCwNCiAgIkxhc2VyIFBvd2VyIE1vbml0b3IiOiAwLjAwNSwNCiAgIkxhc2VyIFRlbXBlcmF0dXJlIE1vbml0b3IiOiAxLjUzMiwNCiAgIkxhc2VyIFNldCBQb2ludCBUZW1wZXJhdHVyZSBNb25pdG9yIjogMS41MzMsDQogICJQaG90byBEaW9kZSBWYWx1ZSI6IDAuNzgsDQogICJFT00gQmlhc2luZyBWYWx1ZSAoZmluZSkiOiAxLjMzOCwNCiAgIkVPTSBCaWFzaW5nIFZhbHVlIChkcmFmdCkiOiAwLjgyOSwNCiAgIlN5c3RlbSBTdGF0dXMiOiAiW0xhc2VyIEVuYWJsZWQsIEVERkEgRW5hYmxlZCwgRURGQSBPbiwgU3RhYmlsaXphdGlvbiBFbmFibGVkLCBXYXRjaGRvZyBFbmFibGVkLCBLZXkgVHVybiBPbiwgTWVhc3VyZSBNb2RlXSIsDQogICJBdHRlbnVhdG9yIFBvc2l0aW9uIFZhbHVlIjogMS45NDksDQogICJQcm9iZSBQb3dlciBWYWx1ZSI6IDIuMzU2LA0KICAiRU9NIFBvd2VyIE91dHB1dCI6IDAuMDQ1LA0KICAiVGhlcm1pc3RvciBWYWx1ZSI6IDMxLjQ4LA0KICAiRmlybXdhcmUgVmVyc2lvbiI6ICJ2IDEzMDIyNi0wIiwNCiAgIkxhc2VyIFRlbXBlcmF0dXJlIjogMS4wOSwNCiAgIkludGVybmFsIEZpYmVyIEdhaW4iOiAxMy44MzM1NDA3MDg3MTE4LA0KICAiUExPIFBvd2VyIEFtcGxpdHVkZSI6IDMuOSwNCiAgIkF1dG8tQ2FsaWJyYXRpb2IgUGVyZm9ybSI6ICJOb25lIiwNCiAgIkludGVybmFsIEdhaW4gUGVyZm9ybSI6ICJNZWFzdXJlbWVudCBDaGFubmVsIg0KfQ==	

[DATADESCRIPTION]
Nb of measurements	1
Distance unit	m
Data type	Temperature
Data unit	°C
Measurement Mode	Absolute

[DATA]	
0.012	223.05887	
0.172	228.04293	
0.333	227.76307	
0.493	224.73270	
0.653	227.02776	
0.813	227.93419	
0.973	46.88492	
1.133	46.90542	
1.293	46.76103	
1.453	46.80203	
1.613	46.77975	
1.773	46.82609	
1.933	46.91522	
2.093	47.13448	
2.253	47.17458	
2.414	47.02663	
2.574	47.27976	
2.734	47.06139	
2.894	46.49186	
3.054	46.22448	
3.214	45.95174	
3.374	46.09257	
3.534	46.19417	
3.694	45.77883	
3.854	45.73159	
4.014	45.67010	
4.174	45.30289	
4.334	45.43658	
4.494	45.38667	
4.655	45.17365	
4.815	45.17989	
4.975	45.23069	
5.135	45.34478	
5.295	45.10948	
5.455	44.67810	
5.615	46.03998	
5.775	48.31454	
5.935	46.28508	
6.095	43.88129	
6.255	44.47043	
6.415	44.02746	
6.575	44.07648	
6.735	44.39110	
6.896	44.31178	
7.056	44.01231	
7.216	44.39021	
7.376	44.66116	
7.536	44.72533	
7.696	44.80466	
7.856	44.88577	
8.016	44.93033	
8.176	44.68077	
8.336	44.79396	
8.496	44.84120	
8.656	44.43121	
8.816	44.47488	
8.977	44.73603	
9.137	44.63086	
9.297	44.64958	
9.457	45.14246	
9.617	44.93924	
9.777	44.71999	
9.937	44.75296	
10.097	45.03461	
10.257	44.93746	
10.417	44.64155	
10.577	44.64334	
10.737	44.37595	
10.897	44.41249	
11.057	44.34297	
11.218	44.58095	
11.378	44.42586	
11.538	44.39823	
11.698	44.29752	
11.858	44.39378	
12.018	44.37684	
12.178	44.44815	
12.338	44.46062	
12.498	44.45884	
12.658	44.45973	
12.818	44.58451	
12.978	44.46954	
13.138	44.57293	
13.299	44.52390	
13.459	44.48380	
13.619	44.40447	
13.779	44.22176	
13.939	44.32158	
14.099	44.35367	
14.259	44.49717	
14.419	44.51945	
14.579	44.02211	
14.739	43.98557	
14.899	44.03994	
15.059	43.75918	
15.219	44.02122	
15.379	43.94100	
15.540	44.00696	
15.700	44.00874	
15.860	44.10767	
16.020	43.99181	
16.180	43.85544	
16.340	43.86079	
16.500	43.99448	
16.660	43.84920	
16.820	43.78057	
16.980	43.80731	
17.140	43.85544	
17.300	43.85277	
17.460	43.82870	
17.621	44.07470	
17.781	44.06489	
17.941	43.69055	
18.101	43.92140	
18.261	43.75473	
18.421	43.54171	
18.581	43.69055	
18.741	43.91605	
18.901	44.02746	
19.061	43.91070	
19.221	44.07648	
19.381	44.14689	
19.541	44.04885	
19.701	44.15670	
19.862	44.20393	
