[FILEINFO]
Version	2.0
Type	Profile
Date	2002-01-15 17:36:47

[DITEST]
Serial Number	13ST0246B	
Type	STA-R	

[MEASUREMENT]
Date	2002-01-11 18:56:38	
Measurement duration (s)	93.657	
File Name	I - zero_2002_01_11_18_56_39 164	
Sensor name	Erick 002	
Sensor ID	'200201050546332081614	
Sensor Length (m)	20.00	
Sample Count	125	
Spatial Resolution (m)	1.0	
Sampling Interval (ns)	4	
Gain contrast (%)	100.00	
Averaging	1000	
Pulse Rate (kHz)	8.5	
Frequency start (GHz)	10.5967	
Frequency stop (GHz)	10.9647	
Frequency step set (MHz)	1	
Frequency step actual (MHz)	1.0	
Nb of frequency peak	1	
Sensor configuration	Loop	
Frequency scan mode	Automatic	

[MAINTENANCEINFO]
Internal	ew0KICAiRURGQSBTdGF0dXMgRXJyb3IiOiAiTm8gRXJyb3IiLA0KICAiTGFzZXIgTGltaXQgQ3VycmVudCBNb25pdG9yIjogMC42OTQsDQogICJMYXNlciBDdXJyZW50IE1vbml0b3IiOiAwLjY5NCwNCiAgIkxhc2VyIFBvd2VyIE1vbml0b3IiOiAwLjAwNiwNCiAgIkxhc2VyIFRlbXBlcmF0dXJlIE1vbml0b3IiOiAxLjUzOSwNCiAgIkxhc2VyIFNldCBQb2ludCBUZW1wZXJhdHVyZSBNb25pdG9yIjogMS41NCwNCiAgIlBob3RvIERpb2RlIFZhbHVlIjogMC43ODUsDQogICJFT00gQmlhc2luZyBWYWx1ZSAoZmluZSkiOiAxLjM1OSwNCiAgIkVPTSBCaWFzaW5nIFZhbHVlIChkcmFmdCkiOiAwLjgyOSwNCiAgIlN5c3RlbSBTdGF0dXMiOiAiW0xhc2VyIEVuYWJsZWQsIEVERkEgRW5hYmxlZCwgRURGQSBPbiwgU3RhYmlsaXphdGlvbiBFbmFibGVkLCBXYXRjaGRvZyBFbmFibGVkLCBLZXkgVHVybiBPbiwgTWVhc3VyZSBNb2RlXSIsDQogICJBdHRlbnVhdG9yIFBvc2l0aW9uIFZhbHVlIjogMS45NDksDQogICJQcm9iZSBQb3dlciBWYWx1ZSI6IDIuMzY0LA0KICAiRU9NIFBvd2VyIE91dHB1dCI6IDAuMDQ1LA0KICAiVGhlcm1pc3RvciBWYWx1ZSI6IDMwLjY5LA0KICAiRmlybXdhcmUgVmVyc2lvbiI6ICJ2IDEzMDIyNi0wIiwNCiAgIkxhc2VyIFRlbXBlcmF0dXJlIjogMS4wOSwNCiAgIkludGVybmFsIEZpYmVyIEdhaW4iOiAxMy4zMDg1NDkzMDQ5OTk5LA0KICAiUExPIFBvd2VyIEFtcGxpdHVkZSI6IDMuOSwNCiAgIkF1dG8tQ2FsaWJyYXRpb2IgUGVyZm9ybSI6ICJNZWFzdXJlbWVudCBDaGFubmVsIiwNCiAgIkludGVybmFsIEdhaW4gUGVyZm9ybSI6ICJNZWFzdXJlbWVudCBDaGFubmVsIg0KfQ==	

[DATADESCRIPTION]
Nb of measurements	1
Distance unit	m
Data type	Temperature
Data unit	°C
Measurement Mode	Absolute

[DATA]	
0.012	222.79683	
0.172	227.04380	
0.333	226.53666	
0.493	223.68544	
0.653	225.40473	
0.813	225.78887	
0.973	46.18793	
1.133	46.15139	
1.293	46.06048	
1.453	45.86618	
1.613	46.00700	
1.773	46.00255	
1.933	46.13089	
2.093	46.36797	
2.253	46.37510	
2.414	46.28330	
2.574	46.47314	
2.734	46.35995	
2.894	45.67010	
3.054	45.46243	
3.214	45.18256	
3.374	45.24674	
3.534	45.38043	
3.694	44.88577	
3.854	44.83318	
4.014	44.27078	
4.174	43.73957	
4.334	43.50160	
4.494	43.08805	
4.655	42.64240	
4.815	42.49980	
4.975	42.31798	
5.135	41.92759	
5.295	41.10316	
5.455	40.26624	
5.615	40.50689	
5.775	40.62543	
5.935	40.41508	
6.095	41.20565	
6.255	41.88749	
6.415	41.90353	
6.575	41.95433	
6.735	42.79036	
6.896	43.03813	
7.056	42.87859	
7.216	43.07824	
7.376	43.43119	
7.536	44.08183	
7.696	44.55599	
7.856	44.56134	
8.016	44.41517	
8.176	44.55956	
8.336	44.58362	
8.496	44.64423	
8.656	44.16739	
8.816	44.38308	
8.977	44.51856	
9.137	44.35278	
9.297	44.67186	
9.457	44.67542	
9.617	44.55688	
9.777	44.48558	
9.937	44.62373	
10.097	44.76099	
10.257	44.66027	
10.417	44.56312	
10.577	44.38576	
10.737	44.22532	
10.897	44.26721	
11.057	44.19146	
11.218	44.31089	
11.378	44.36436	
11.538	44.06935	
11.698	44.06668	
11.858	44.23513	
12.018	44.06311	
12.178	44.14867	
12.338	44.30732	
12.498	44.29930	
12.658	44.11302	
12.818	44.28058	
12.978	44.30197	
13.138	44.20215	
13.299	44.11748	
13.459	44.25652	
13.619	43.96150	
13.779	43.70749	
13.939	43.75829	
14.099	44.10767	
14.259	43.98735	
14.419	43.93298	
14.579	43.69501	
14.739	43.31532	
14.899	43.45169	
15.059	43.52121	
15.219	43.42584	
15.379	43.39821	
15.540	43.61925	
15.700	43.48110	
15.860	43.29571	
16.020	43.38128	
16.180	43.31265	
16.340	43.32513	
16.500	43.34384	
16.660	43.26719	
16.820	43.10854	
16.980	43.20124	
17.140	43.10498	
17.300	43.06131	
17.460	43.11568	
17.621	43.30819	
17.781	43.04348	
17.941	42.93742	
18.101	43.12191	
18.261	42.81977	
18.421	42.58893	
18.581	42.91424	
18.741	43.12459	
18.901	43.11211	
19.061	43.24224	
19.221	43.42762	
19.381	43.26630	
19.541	43.25650	
19.701	43.49091	
19.862	43.30463	
