[FILEINFO]
Version	2.0
Type	Profile
Date	2002-01-15 17:36:05

[DITEST]
Serial Number	13ST0246B	
Type	STA-R	

[MEASUREMENT]
Date	2002-01-11 19:54:52	
Measurement duration (s)	94.107	
File Name	I - 55_2002_01_11_19_54_53 492	
Sensor name	Erick 002	
Sensor ID	'200201050546332081614	
Sensor Length (m)	20.00	
Sample Count	125	
Spatial Resolution (m)	1.0	
Sampling Interval (ns)	4	
Gain contrast (%)	100.00	
Averaging	1000	
Pulse Rate (kHz)	8.5	
Frequency start (GHz)	10.5967	
Frequency stop (GHz)	10.9647	
Frequency step set (MHz)	1	
Frequency step actual (MHz)	1.0	
Nb of frequency peak	1	
Sensor configuration	Loop	
Frequency scan mode	Automatic	

[MAINTENANCEINFO]
Internal	ew0KICAiRURGQSBTdGF0dXMgRXJyb3IiOiAiTm8gRXJyb3IiLA0KICAiTGFzZXIgTGltaXQgQ3VycmVudCBNb25pdG9yIjogMC42OTUsDQogICJMYXNlciBDdXJyZW50IE1vbml0b3IiOiAwLjY5NSwNCiAgIkxhc2VyIFBvd2VyIE1vbml0b3IiOiAwLjAwNiwNCiAgIkxhc2VyIFRlbXBlcmF0dXJlIE1vbml0b3IiOiAxLjUzMiwNCiAgIkxhc2VyIFNldCBQb2ludCBUZW1wZXJhdHVyZSBNb25pdG9yIjogMS41MzMsDQogICJQaG90byBEaW9kZSBWYWx1ZSI6IDAuNzk4LA0KICAiRU9NIEJpYXNpbmcgVmFsdWUgKGZpbmUpIjogMS4yODYsDQogICJFT00gQmlhc2luZyBWYWx1ZSAoZHJhZnQpIjogMC44MjksDQogICJTeXN0ZW0gU3RhdHVzIjogIltMYXNlciBFbmFibGVkLCBFREZBIEVuYWJsZWQsIEVERkEgT24sIFN0YWJpbGl6YXRpb24gRW5hYmxlZCwgV2F0Y2hkb2cgRW5hYmxlZCwgS2V5IFR1cm4gT24sIE1lYXN1cmUgTW9kZV0iLA0KICAiQXR0ZW51YXRvciBQb3NpdGlvbiBWYWx1ZSI6IDEuOTQ4LA0KICAiUHJvYmUgUG93ZXIgVmFsdWUiOiAyLjM1OCwNCiAgIkVPTSBQb3dlciBPdXRwdXQiOiAwLjA0NCwNCiAgIlRoZXJtaXN0b3IgVmFsdWUiOiAzMi42NCwNCiAgIkZpcm13YXJlIFZlcnNpb24iOiAidiAxMzAyMjYtMCIsDQogICJMYXNlciBUZW1wZXJhdHVyZSI6IDEuMDksDQogICJJbnRlcm5hbCBGaWJlciBHYWluIjogMTMuOTI4Nzk0MTk5ODc3NCwNCiAgIlBMTyBQb3dlciBBbXBsaXR1ZGUiOiAzLjksDQogICJBdXRvLUNhbGlicmF0aW9iIFBlcmZvcm0iOiAiTm9uZSIsDQogICJJbnRlcm5hbCBHYWluIFBlcmZvcm0iOiAiTWVhc3VyZW1lbnQgQ2hhbm5lbCINCn0=	

[DATADESCRIPTION]
Nb of measurements	1
Distance unit	m
Data type	Temperature
Data unit	°C
Measurement Mode	Absolute

[DATA]	
0.012	225.04554	
0.172	230.22925	
0.333	230.01445	
0.493	226.72115	
0.653	228.77557	
0.813	229.37986	
0.973	47.31541	
1.133	47.67459	
1.293	47.61844	
1.453	47.46960	
1.613	47.68351	
1.773	47.67905	
1.933	47.96426	
2.093	48.13806	
2.253	48.00883	
2.414	47.92861	
2.574	48.06230	
2.734	48.03022	
2.894	47.64429	
3.054	47.19241	
3.214	46.95800	
3.374	47.15676	
3.534	47.24945	
3.694	46.80024	
3.854	46.71290	
4.014	46.65942	
4.174	46.36975	
4.334	46.25656	
4.494	46.32876	
4.655	46.38045	
4.815	46.38758	
4.975	46.29489	
5.135	46.44997	
5.295	45.72357	
5.455	44.99005	
5.615	44.97935	
5.775	44.91072	
5.935	45.13087	
6.095	45.05778	
6.255	45.12463	
6.415	45.05868	
6.575	45.01946	
6.735	45.62197	
6.896	45.50699	
7.056	45.19326	
7.216	45.23069	
7.376	45.48471	
7.536	45.79755	
7.696	45.70842	
7.856	45.84924	
8.016	45.60058	
8.176	45.61395	
8.336	45.48204	
8.496	45.40449	
8.656	45.31358	
8.816	45.30734	
8.977	45.41697	
9.137	45.34210	
9.297	45.50253	
9.457	45.53819	
9.617	45.53908	
9.777	45.34032	
9.937	45.50610	
10.097	45.66564	
10.257	45.65762	
10.417	45.41519	
10.577	45.37241	
10.737	45.22267	
10.897	45.20752	
11.057	45.14335	
11.218	45.28328	
11.378	45.20128	
11.538	45.11483	
11.698	45.01411	
11.858	45.11839	
12.018	45.06670	
12.178	45.18702	
12.338	45.29932	
12.498	45.17722	
12.658	45.28774	
12.818	45.33052	
12.978	45.18256	
13.138	45.43747	
13.299	45.44371	
13.459	45.35458	
13.619	45.30110	
13.779	44.97222	
13.939	45.06759	
14.099	45.13443	
14.259	45.35547	
14.419	45.26278	
14.579	44.79396	
14.739	44.76188	
14.899	44.71464	
15.059	44.58540	
15.219	44.79218	
15.379	44.79218	
15.540	44.79753	
15.700	44.77970	
15.860	44.73870	
16.020	44.77881	
16.180	44.58986	
16.340	44.61660	
16.500	44.74940	
16.660	44.57649	
16.820	44.61303	
16.980	44.63888	
17.140	44.62551	
17.300	44.62818	
17.460	44.57916	
17.621	44.71107	
17.781	44.67899	
17.941	44.48201	
18.101	44.54886	
18.261	44.48291	
18.421	44.22443	
18.581	44.36347	
18.741	44.67631	
18.901	44.77346	
19.061	44.62551	
19.221	44.87329	
19.381	44.90092	
19.541	44.78505	
19.701	44.93479	
19.862	44.94192	
