[FILEINFO]
Version	2.0
Type	Profile
Date	2002-01-15 17:35:35

[DITEST]
Serial Number	13ST0246B	
Type	STA-R	

[MEASUREMENT]
Date	2002-01-11 19:40:23	
Measurement duration (s)	94.583	
File Name	I - 40_2002_01_11_19_40_24 857	
Sensor name	Erick 002	
Sensor ID	'200201050546332081614	
Sensor Length (m)	20.00	
Sample Count	125	
Spatial Resolution (m)	1.0	
Sampling Interval (ns)	4	
Gain contrast (%)	100.00	
Averaging	1000	
Pulse Rate (kHz)	8.5	
Frequency start (GHz)	10.5807	
Frequency stop (GHz)	10.9627	
Frequency step set (MHz)	1	
Frequency step actual (MHz)	1.0	
Nb of frequency peak	1	
Sensor configuration	Loop	
Frequency scan mode	Automatic	

[MAINTENANCEINFO]
Internal	ew0KICAiRURGQSBTdGF0dXMgRXJyb3IiOiAiTm8gRXJyb3IiLA0KICAiTGFzZXIgTGltaXQgQ3VycmVudCBNb25pdG9yIjogMC42OTUsDQogICJMYXNlciBDdXJyZW50IE1vbml0b3IiOiAwLjY5NSwNCiAgIkxhc2VyIFBvd2VyIE1vbml0b3IiOiAwLjAwOCwNCiAgIkxhc2VyIFRlbXBlcmF0dXJlIE1vbml0b3IiOiAxLjUzMiwNCiAgIkxhc2VyIFNldCBQb2ludCBUZW1wZXJhdHVyZSBNb25pdG9yIjogMS41MzMsDQogICJQaG90byBEaW9kZSBWYWx1ZSI6IDAuNzk2LA0KICAiRU9NIEJpYXNpbmcgVmFsdWUgKGZpbmUpIjogMS4yODYsDQogICJFT00gQmlhc2luZyBWYWx1ZSAoZHJhZnQpIjogMC44MjksDQogICJTeXN0ZW0gU3RhdHVzIjogIltMYXNlciBFbmFibGVkLCBFREZBIEVuYWJsZWQsIEVERkEgT24sIFN0YWJpbGl6YXRpb24gRW5hYmxlZCwgV2F0Y2hkb2cgRW5hYmxlZCwgS2V5IFR1cm4gT24sIE1lYXN1cmUgTW9kZV0iLA0KICAiQXR0ZW51YXRvciBQb3NpdGlvbiBWYWx1ZSI6IDEuOTQ4LA0KICAiUHJvYmUgUG93ZXIgVmFsdWUiOiAyLjMzNSwNCiAgIkVPTSBQb3dlciBPdXRwdXQiOiAwLjA0NSwNCiAgIlRoZXJtaXN0b3IgVmFsdWUiOiAzMi4yNSwNCiAgIkZpcm13YXJlIFZlcnNpb24iOiAidiAxMzAyMjYtMCIsDQogICJMYXNlciBUZW1wZXJhdHVyZSI6IDEuMDksDQogICJJbnRlcm5hbCBGaWJlciBHYWluIjogMTMuNTI3MTA4NDE5MDU5NSwNCiAgIlBMTyBQb3dlciBBbXBsaXR1ZGUiOiAzLjksDQogICJBdXRvLUNhbGlicmF0aW9iIFBlcmZvcm0iOiAiTm9uZSIsDQogICJJbnRlcm5hbCBHYWluIFBlcmZvcm0iOiAiTWVhc3VyZW1lbnQgQ2hhbm5lbCINCn0=	

[DATADESCRIPTION]
Nb of measurements	1
Distance unit	m
Data type	Temperature
Data unit	°C
Measurement Mode	Absolute

[DATA]	
0.012	224.65694	
0.172	229.84065	
0.333	229.63031	
0.493	226.43238	
0.653	228.13562	
0.813	229.10623	
0.973	46.75033	
1.133	47.20667	
1.293	47.20578	
1.453	47.12467	
1.613	47.17369	
1.773	47.31630	
1.933	47.57655	
2.093	47.67370	
2.253	47.77442	
2.414	47.53110	
2.574	47.64073	
2.734	47.38493	
2.894	46.96335	
3.054	46.84570	
3.214	46.55336	
3.374	46.73251	
3.534	46.77351	
3.694	46.51860	
3.854	46.36797	
4.014	46.30647	
4.174	46.11128	
4.334	45.84211	
4.494	45.88400	
4.655	45.83766	
4.815	45.81894	
4.975	46.03909	
5.135	46.08276	
5.295	45.61929	
5.455	44.94726	
5.615	45.25030	
5.775	45.85548	
5.935	45.45619	
6.095	44.73870	
6.255	44.84298	
6.415	44.92677	
6.575	44.79218	
6.735	45.21465	
6.896	45.35013	
7.056	44.71286	
7.216	44.94370	
7.376	45.27704	
7.536	45.47401	
7.696	45.76992	
7.856	45.63623	
8.016	45.43658	
8.176	45.48114	
8.336	45.40449	
8.496	45.50253	
8.656	45.09789	
8.816	45.16028	
8.977	45.29576	
9.137	45.35280	
9.297	45.29932	
9.457	45.50610	
9.617	45.37597	
9.777	45.24584	
9.937	45.24050	
10.097	45.51769	
10.257	45.55334	
10.417	45.16206	
10.577	45.25119	
10.737	45.15939	
10.897	44.93390	
11.057	45.01322	
11.218	45.18346	
11.378	45.11928	
11.538	44.96153	
11.698	44.86170	
11.858	45.12641	
12.018	44.89914	
12.178	45.11483	
12.338	45.20217	
12.498	44.97757	
12.658	45.09433	
12.818	45.05689	
12.978	45.03105	
13.138	45.11037	
13.299	45.13533	
13.459	45.09967	
13.619	44.93479	
13.779	44.71553	
13.939	44.80377	
14.099	44.86972	
14.259	45.19861	
14.419	44.99183	
14.579	44.69860	
14.739	44.45349	
14.899	44.58451	
15.059	44.23869	
15.219	44.44904	
15.379	44.58184	
15.540	44.45706	
15.700	44.46775	
15.860	44.57293	
16.020	44.45973	
16.180	44.24761	
16.340	44.54440	
16.500	44.46419	
16.660	44.41784	
16.820	44.40536	
16.980	44.36169	
17.140	44.50964	
17.300	44.46241	
17.460	44.41249	
17.621	44.52123	
17.781	44.60412	
17.941	44.25385	
18.101	44.47221	
18.261	44.34921	
18.421	44.18789	
18.581	44.26989	
18.741	44.63710	
18.901	44.77168	
19.061	44.70484	
19.221	44.84209	
19.381	44.99539	
19.541	44.59342	
19.701	44.78951	
19.862	44.76188	
