[FILEINFO]
Version	2.0
Type	Profile
Date	2002-01-15 17:36:41

[DITEST]
Serial Number	13ST0246B	
Type	STA-R	

[MEASUREMENT]
Date	2002-01-11 20:25:11	
Measurement duration (s)	93.374	
File Name	I - 85_2002_01_11_20_25_12 591	
Sensor name	Erick 002	
Sensor ID	'200201050546332081614	
Sensor Length (m)	20.00	
Sample Count	125	
Spatial Resolution (m)	1.0	
Sampling Interval (ns)	4	
Gain contrast (%)	100.00	
Averaging	1000	
Pulse Rate (kHz)	8.5	
Frequency start (GHz)	10.5967	
Frequency stop (GHz)	10.9647	
Frequency step set (MHz)	1	
Frequency step actual (MHz)	1.0	
Nb of frequency peak	1	
Sensor configuration	Loop	
Frequency scan mode	Automatic	

[MAINTENANCEINFO]
Internal	ew0KICAiRURGQSBTdGF0dXMgRXJyb3IiOiAiTm8gRXJyb3IiLA0KICAiTGFzZXIgTGltaXQgQ3VycmVudCBNb25pdG9yIjogMC42OTUsDQogICJMYXNlciBDdXJyZW50IE1vbml0b3IiOiAwLjY5NSwNCiAgIkxhc2VyIFBvd2VyIE1vbml0b3IiOiAwLjAwNCwNCiAgIkxhc2VyIFRlbXBlcmF0dXJlIE1vbml0b3IiOiAxLjUyNiwNCiAgIkxhc2VyIFNldCBQb2ludCBUZW1wZXJhdHVyZSBNb25pdG9yIjogMS41MjcsDQogICJQaG90byBEaW9kZSBWYWx1ZSI6IDAuNzgyLA0KICAiRU9NIEJpYXNpbmcgVmFsdWUgKGZpbmUpIjogMS4yMTcsDQogICJFT00gQmlhc2luZyBWYWx1ZSAoZHJhZnQpIjogMC44MjksDQogICJTeXN0ZW0gU3RhdHVzIjogIltMYXNlciBFbmFibGVkLCBFREZBIEVuYWJsZWQsIEVERkEgT24sIFN0YWJpbGl6YXRpb24gRW5hYmxlZCwgV2F0Y2hkb2cgRW5hYmxlZCwgS2V5IFR1cm4gT24sIE1lYXN1cmUgTW9kZV0iLA0KICAiQXR0ZW51YXRvciBQb3NpdGlvbiBWYWx1ZSI6IDEuOTQ4LA0KICAiUHJvYmUgUG93ZXIgVmFsdWUiOiAyLjM3MiwNCiAgIkVPTSBQb3dlciBPdXRwdXQiOiAwLjA0NSwNCiAgIlRoZXJtaXN0b3IgVmFsdWUiOiAzMy40NSwNCiAgIkZpcm13YXJlIFZlcnNpb24iOiAidiAxMzAyMjYtMCIsDQogICJMYXNlciBUZW1wZXJhdHVyZSI6IDEuMDc0LA0KICAiSW50ZXJuYWwgRmliZXIgR2FpbiI6IDE0LjE4NzA1NjY5MjUyLA0KICAiUExPIFBvd2VyIEFtcGxpdHVkZSI6IDMuOSwNCiAgIkF1dG8tQ2FsaWJyYXRpb2IgUGVyZm9ybSI6ICJOb25lIiwNCiAgIkludGVybmFsIEdhaW4gUGVyZm9ybSI6ICJNZWFzdXJlbWVudCBDaGFubmVsIg0KfQ==	

[DATADESCRIPTION]
Nb of measurements	1
Distance unit	m
Data type	Temperature
Data unit	°C
Measurement Mode	Absolute

[DATA]	
0.012	227.15432	
0.172	231.63570	
0.333	231.04032	
0.493	228.13830	
0.653	229.91730	
0.813	230.37631	
0.973	47.91524	
1.133	48.35910	
1.293	48.38317	
1.453	48.34573	
1.613	48.61757	
1.773	48.60955	
1.933	48.82613	
2.093	49.01598	
2.253	48.91081	
2.414	48.87872	
2.574	49.02935	
2.734	48.86624	
2.894	48.56321	
3.054	48.36534	
3.214	48.22452	
3.374	48.27710	
3.534	48.29404	
3.694	48.05517	
3.854	47.80918	
4.014	47.73075	
4.174	47.44999	
4.334	47.32699	
4.494	47.40543	
4.655	47.36265	
4.815	47.56318	
4.975	47.57477	
5.135	47.39830	
5.295	46.82520	
5.455	45.98026	
5.615	45.44817	
5.775	44.50519	
5.935	45.56938	
6.095	46.03909	
6.255	45.87064	
6.415	46.09791	
6.575	46.16654	
6.735	46.91076	
6.896	46.69775	
7.056	46.27973	
7.216	46.46601	
7.376	46.66388	
7.536	46.86263	
7.696	46.74855	
7.856	46.83857	
8.016	46.41788	
8.176	46.31449	
8.336	46.37421	
8.496	46.29132	
8.656	45.90183	
8.816	46.17635	
8.977	46.34569	
9.137	46.17011	
9.297	46.14693	
9.457	46.52929	
9.617	46.50345	
9.777	46.05691	
9.937	46.17100	
10.097	46.64873	
10.257	46.56940	
10.417	46.27171	
10.577	46.14159	
10.737	45.92500	
10.897	45.82785	
11.057	45.94461	
11.218	46.17278	
11.378	45.97402	
11.538	45.90183	
11.698	45.82696	
11.858	45.84122	
12.018	45.76101	
12.178	45.83766	
12.338	45.84568	
12.498	45.83320	
12.658	46.23428	
12.818	46.03552	
12.978	45.94996	
13.138	46.12198	
13.299	46.06404	
13.459	46.12643	
13.619	46.02215	
13.779	45.82429	
13.939	45.88579	
14.099	45.90272	
14.259	46.22982	
14.419	46.05781	
14.579	45.64960	
14.739	45.61484	
14.899	45.63534	
15.059	45.54888	
15.219	45.51858	
15.379	45.58097	
15.540	45.42321	
15.700	45.41697	
15.860	45.71377	
16.020	45.51145	
16.180	45.32339	
16.340	45.57829	
16.500	45.53462	
16.660	45.37776	
16.820	45.32873	
16.980	45.40449	
17.140	45.37776	
17.300	45.32071	
17.460	45.44728	
17.621	45.38221	
17.781	45.50075	
17.941	45.27615	
18.101	45.35102	
18.261	45.36439	
18.421	44.99005	
18.581	45.06402	
18.741	45.38221	
18.901	45.48382	
19.061	45.44549	
19.221	45.61305	
19.381	45.70218	
19.541	45.64781	
19.701	45.72625	
19.862	45.65851	
