[FILEINFO]
Version	2.0
Type	Profile
Date	2002-01-15 17:35:03

[DITEST]
Serial Number	13ST0246B	
Type	STA-R	

[MEASUREMENT]
Date	2002-01-11 19:19:28	
Measurement duration (s)	94.457	
File Name	I - 20_2002_01_11_19_19_29 255	
Sensor name	Erick 002	
Sensor ID	'200201050546332081614	
Sensor Length (m)	20.00	
Sample Count	125	
Spatial Resolution (m)	1.0	
Sampling Interval (ns)	4	
Gain contrast (%)	100.00	
Averaging	1000	
Pulse Rate (kHz)	8.5	
Frequency start (GHz)	10.5967	
Frequency stop (GHz)	10.9647	
Frequency step set (MHz)	1	
Frequency step actual (MHz)	1.0	
Nb of frequency peak	1	
Sensor configuration	Loop	
Frequency scan mode	Automatic	

[MAINTENANCEINFO]
Internal	ew0KICAiRURGQSBTdGF0dXMgRXJyb3IiOiAiTm8gRXJyb3IiLA0KICAiTGFzZXIgTGltaXQgQ3VycmVudCBNb25pdG9yIjogMC42OTQsDQogICJMYXNlciBDdXJyZW50IE1vbml0b3IiOiAwLjY5NCwNCiAgIkxhc2VyIFBvd2VyIE1vbml0b3IiOiAwLjAwNywNCiAgIkxhc2VyIFRlbXBlcmF0dXJlIE1vbml0b3IiOiAxLjUzMiwNCiAgIkxhc2VyIFNldCBQb2ludCBUZW1wZXJhdHVyZSBNb25pdG9yIjogMS41MzMsDQogICJQaG90byBEaW9kZSBWYWx1ZSI6IDAuNzgxLA0KICAiRU9NIEJpYXNpbmcgVmFsdWUgKGZpbmUpIjogMS4zMjYsDQogICJFT00gQmlhc2luZyBWYWx1ZSAoZHJhZnQpIjogMC44MjksDQogICJTeXN0ZW0gU3RhdHVzIjogIltMYXNlciBFbmFibGVkLCBFREZBIEVuYWJsZWQsIEVERkEgT24sIFN0YWJpbGl6YXRpb24gRW5hYmxlZCwgV2F0Y2hkb2cgRW5hYmxlZCwgS2V5IFR1cm4gT24sIE1lYXN1cmUgTW9kZV0iLA0KICAiQXR0ZW51YXRvciBQb3NpdGlvbiBWYWx1ZSI6IDEuOTQ4LA0KICAiUHJvYmUgUG93ZXIgVmFsdWUiOiAyLjM1OSwNCiAgIkVPTSBQb3dlciBPdXRwdXQiOiAwLjA0NiwNCiAgIlRoZXJtaXN0b3IgVmFsdWUiOiAzMS42MiwNCiAgIkZpcm13YXJlIFZlcnNpb24iOiAidiAxMzAyMjYtMCIsDQogICJMYXNlciBUZW1wZXJhdHVyZSI6IDEuMDksDQogICJJbnRlcm5hbCBGaWJlciBHYWluIjogMTQuMjMwMDcxMDExMTU2MSwNCiAgIlBMTyBQb3dlciBBbXBsaXR1ZGUiOiAzLjksDQogICJBdXRvLUNhbGlicmF0aW9iIFBlcmZvcm0iOiAiTm9uZSIsDQogICJJbnRlcm5hbCBHYWluIFBlcmZvcm0iOiAiTWVhc3VyZW1lbnQgQ2hhbm5lbCINCn0=	

[DATADESCRIPTION]
Nb of measurements	1
Distance unit	m
Data type	Temperature
Data unit	°C
Measurement Mode	Absolute

[DATA]	
0.012	223.47599	
0.172	228.18464	
0.333	228.14810	
0.493	225.30134	
0.653	227.25682	
0.813	227.93776	
0.973	46.75301	
1.133	47.06585	
1.293	46.79222	
1.453	46.60505	
1.613	46.70042	
1.773	46.70755	
1.933	46.88135	
2.093	47.09704	
2.253	46.97137	
2.414	46.95800	
2.574	47.24143	
2.734	46.89026	
2.894	46.43660	
3.054	46.28954	
3.214	46.01413	
3.374	46.09435	
3.534	46.21467	
3.694	46.00878	
3.854	45.99096	
4.014	45.76546	
4.174	45.54443	
4.334	45.47580	
4.494	45.39202	
4.655	45.38132	
4.815	45.41073	
4.975	45.48649	
5.135	45.46688	
5.295	45.26634	
5.455	44.64423	
5.615	45.89559	
5.775	47.85018	
5.935	46.10326	
6.095	44.10589	
6.255	44.46419	
6.415	44.11302	
6.575	44.17809	
6.735	44.56579	
6.896	44.47578	
7.056	44.30554	
7.216	44.39645	
7.376	44.50073	
7.536	44.81357	
7.696	45.16830	
7.856	45.23426	
8.016	45.16028	
8.176	45.05868	
8.336	45.07115	
8.496	45.07026	
8.656	44.72890	
8.816	44.82427	
8.977	45.02748	
9.137	44.91963	
9.297	45.03194	
9.457	45.29219	
9.617	45.13087	
9.777	45.04709	
9.937	45.06937	
10.097	45.21198	
10.257	45.27526	
10.417	44.82248	
10.577	44.74673	
10.737	44.78505	
10.897	44.51856	
11.057	44.58808	
11.218	44.72890	
11.378	44.72266	
11.538	44.53282	
11.698	44.53727	
11.858	44.73514	
12.018	44.60145	
12.178	44.69057	
12.338	44.74405	
12.498	44.65225	
12.658	44.81179	
12.818	44.57293	
12.978	44.50786	
13.138	44.72623	
13.299	44.58184	
13.459	44.60412	
13.619	44.54975	
13.779	44.05152	
13.939	44.14957	
14.099	44.35278	
14.259	44.53638	
14.419	44.45884	
14.579	44.14422	
14.739	43.85901	
14.899	43.97487	
15.059	43.72888	
15.219	44.01766	
15.379	43.86881	
15.540	44.00339	
15.700	43.99894	
15.860	43.95081	
16.020	43.90803	
16.180	43.69947	
16.340	43.94546	
16.500	43.92942	
16.660	43.86703	
16.820	43.72353	
16.980	43.73423	
17.140	43.70214	
17.300	43.70927	
17.460	43.75829	
17.621	43.91516	
17.781	43.80731	
17.941	43.46060	
18.101	43.77077	
18.261	43.72531	
18.421	43.26987	
18.581	43.54260	
18.741	43.83583	
18.901	43.76720	
19.061	43.79394	
19.221	44.03637	
19.381	43.98111	
19.541	43.86525	
19.701	44.16026	
19.862	44.01320	
