[FILEINFO]
Version	2.0
Type	Profile
Date	2002-01-15 17:35:59

[DITEST]
Serial Number	13ST0246B	
Type	STA-R	

[MEASUREMENT]
Date	2002-01-11 19:50:12	
Measurement duration (s)	94.967	
File Name	I - 50_2002_01_11_19_50_13 873	
Sensor name	Erick 002	
Sensor ID	'200201050546332081614	
Sensor Length (m)	20.00	
Sample Count	125	
Spatial Resolution (m)	1.0	
Sampling Interval (ns)	4	
Gain contrast (%)	100.00	
Averaging	1000	
Pulse Rate (kHz)	8.5	
Frequency start (GHz)	10.5967	
Frequency stop (GHz)	10.9647	
Frequency step set (MHz)	1	
Frequency step actual (MHz)	1.0	
Nb of frequency peak	1	
Sensor configuration	Loop	
Frequency scan mode	Automatic	

[MAINTENANCEINFO]
Internal	ew0KICAiRURGQSBTdGF0dXMgRXJyb3IiOiAiTm8gRXJyb3IiLA0KICAiTGFzZXIgTGltaXQgQ3VycmVudCBNb25pdG9yIjogMC42OTQsDQogICJMYXNlciBDdXJyZW50IE1vbml0b3IiOiAwLjY5NCwNCiAgIkxhc2VyIFBvd2VyIE1vbml0b3IiOiAwLjAwNSwNCiAgIkxhc2VyIFRlbXBlcmF0dXJlIE1vbml0b3IiOiAxLjUzMiwNCiAgIkxhc2VyIFNldCBQb2ludCBUZW1wZXJhdHVyZSBNb25pdG9yIjogMS41MzMsDQogICJQaG90byBEaW9kZSBWYWx1ZSI6IDAuNzk0LA0KICAiRU9NIEJpYXNpbmcgVmFsdWUgKGZpbmUpIjogMS4yOTUsDQogICJFT00gQmlhc2luZyBWYWx1ZSAoZHJhZnQpIjogMC44MjksDQogICJTeXN0ZW0gU3RhdHVzIjogIltMYXNlciBFbmFibGVkLCBFREZBIEVuYWJsZWQsIEVERkEgT24sIFN0YWJpbGl6YXRpb24gRW5hYmxlZCwgV2F0Y2hkb2cgRW5hYmxlZCwgS2V5IFR1cm4gT24sIE1lYXN1cmUgTW9kZV0iLA0KICAiQXR0ZW51YXRvciBQb3NpdGlvbiBWYWx1ZSI6IDEuOTQ4LA0KICAiUHJvYmUgUG93ZXIgVmFsdWUiOiAyLjM3LA0KICAiRU9NIFBvd2VyIE91dHB1dCI6IDAuMDQ1LA0KICAiVGhlcm1pc3RvciBWYWx1ZSI6IDMyLjUxLA0KICAiRmlybXdhcmUgVmVyc2lvbiI6ICJ2IDEzMDIyNi0wIiwNCiAgIkxhc2VyIFRlbXBlcmF0dXJlIjogMS4wOSwNCiAgIkludGVybmFsIEZpYmVyIEdhaW4iOiAxNC4wMjE3MjAxNzgwNTY1LA0KICAiUExPIFBvd2VyIEFtcGxpdHVkZSI6IDMuOSwNCiAgIkF1dG8tQ2FsaWJyYXRpb2IgUGVyZm9ybSI6ICJOb25lIiwNCiAgIkludGVybmFsIEdhaW4gUGVyZm9ybSI6ICJNZWFzdXJlbWVudCBDaGFubmVsIg0KfQ==	

[DATADESCRIPTION]
Nb of measurements	1
Distance unit	m
Data type	Temperature
Data unit	°C
Measurement Mode	Absolute

[DATA]	
0.012	224.50097	
0.172	229.62318	
0.333	229.52870	
0.493	226.29601	
0.653	228.32012	
0.813	229.03760	
0.973	46.55782	
1.133	46.93839	
1.293	46.82074	
1.453	46.87244	
1.613	46.88046	
1.773	47.02217	
1.933	47.00078	
2.093	47.35819	
2.253	47.27619	
2.414	47.31541	
2.574	47.34304	
2.734	47.16211	
2.894	46.74588	
3.054	46.60684	
3.214	46.54356	
3.374	46.55069	
3.534	46.40273	
3.694	46.08098	
3.854	46.13267	
4.014	45.83855	
4.174	45.77081	
4.334	45.63534	
4.494	45.82964	
4.655	45.77972	
4.815	45.67188	
4.975	45.99631	
5.135	45.89559	
5.295	45.45975	
5.455	44.85011	
5.615	44.93657	
5.775	45.21376	
5.935	45.10502	
6.095	44.76723	
6.255	44.71910	
6.415	44.70840	
6.575	44.76188	
6.735	45.06046	
6.896	45.09433	
7.056	44.84922	
7.216	45.02926	
7.376	45.20574	
7.536	45.37954	
7.696	45.54086	
7.856	45.55334	
8.016	45.50343	
8.176	45.35013	
8.336	45.43123	
8.496	45.31358	
8.656	45.09254	
8.816	45.15315	
8.977	45.35458	
9.137	45.26100	
9.297	45.44638	
9.457	45.59701	
9.617	45.57740	
9.777	45.33230	
9.937	45.48471	
10.097	45.73694	
10.257	45.64514	
10.417	45.29754	
10.577	45.29932	
10.737	45.20306	
10.897	45.03194	
11.057	45.07472	
11.218	45.20930	
11.378	45.13978	
11.538	45.02213	
11.698	44.98024	
11.858	45.17543	
12.018	45.04174	
12.178	45.26189	
12.338	45.19861	
12.498	45.18969	
12.658	45.17632	
12.818	45.23871	
12.978	45.06135	
13.138	45.23515	
13.299	45.11393	
13.459	45.22356	
13.619	44.99896	
13.779	44.86527	
13.939	44.85724	
14.099	44.93835	
14.259	45.14335	
14.419	45.07650	
14.579	44.62284	
14.739	44.61482	
14.899	44.66829	
15.059	44.41160	
15.219	44.64423	
15.379	44.65492	
15.540	44.58184	
15.700	44.49449	
15.860	44.67542	
16.020	44.65047	
16.180	44.41160	
16.340	44.48469	
16.500	44.56936	
16.660	44.48112	
16.820	44.49538	
16.980	44.47488	
17.140	44.45082	
17.300	44.40002	
17.460	44.59788	
17.621	44.51588	
17.781	44.51945	
17.941	44.33317	
18.101	44.35991	
18.261	44.25028	
18.421	44.00250	
18.581	44.16917	
18.741	44.46508	
18.901	44.52569	
19.061	44.50341	
19.221	44.55777	
19.381	44.62284	
19.541	44.55153	
19.701	44.64690	
19.862	44.73157	
