[FILEINFO]
Version	2.0
Type	Profile
Date	2002-01-15 17:35:12

[DITEST]
Serial Number	13ST0246B	
Type	STA-R	

[MEASUREMENT]
Date	2002-01-11 19:24:41	
Measurement duration (s)	94.986	
File Name	I - 25_2002_01_11_19_24_42 971	
Sensor name	Erick 002	
Sensor ID	'200201050546332081614	
Sensor Length (m)	20.00	
Sample Count	125	
Spatial Resolution (m)	1.0	
Sampling Interval (ns)	4	
Gain contrast (%)	100.00	
Averaging	1000	
Pulse Rate (kHz)	8.5	
Frequency start (GHz)	10.5807	
Frequency stop (GHz)	10.9617	
Frequency step set (MHz)	1	
Frequency step actual (MHz)	1.0	
Nb of frequency peak	1	
Sensor configuration	Loop	
Frequency scan mode	Automatic	

[MAINTENANCEINFO]
Internal	ew0KICAiRURGQSBTdGF0dXMgRXJyb3IiOiAiTm8gRXJyb3IiLA0KICAiTGFzZXIgTGltaXQgQ3VycmVudCBNb25pdG9yIjogMC42OTQsDQogICJMYXNlciBDdXJyZW50IE1vbml0b3IiOiAwLjY5NCwNCiAgIkxhc2VyIFBvd2VyIE1vbml0b3IiOiAwLjAwNywNCiAgIkxhc2VyIFRlbXBlcmF0dXJlIE1vbml0b3IiOiAxLjUzMiwNCiAgIkxhc2VyIFNldCBQb2ludCBUZW1wZXJhdHVyZSBNb25pdG9yIjogMS41MzMsDQogICJQaG90byBEaW9kZSBWYWx1ZSI6IDAuNzg4LA0KICAiRU9NIEJpYXNpbmcgVmFsdWUgKGZpbmUpIjogMS4yODcsDQogICJFT00gQmlhc2luZyBWYWx1ZSAoZHJhZnQpIjogMC44MjksDQogICJTeXN0ZW0gU3RhdHVzIjogIltMYXNlciBFbmFibGVkLCBFREZBIEVuYWJsZWQsIEVERkEgT24sIFN0YWJpbGl6YXRpb24gRW5hYmxlZCwgV2F0Y2hkb2cgRW5hYmxlZCwgS2V5IFR1cm4gT24sIE1lYXN1cmUgTW9kZV0iLA0KICAiQXR0ZW51YXRvciBQb3NpdGlvbiBWYWx1ZSI6IDEuOTQ4LA0KICAiUHJvYmUgUG93ZXIgVmFsdWUiOiAyLjM4MSwNCiAgIkVPTSBQb3dlciBPdXRwdXQiOiAwLjA0NywNCiAgIlRoZXJtaXN0b3IgVmFsdWUiOiAzMS44NCwNCiAgIkZpcm13YXJlIFZlcnNpb24iOiAidiAxMzAyMjYtMCIsDQogICJMYXNlciBUZW1wZXJhdHVyZSI6IDEuMDksDQogICJJbnRlcm5hbCBGaWJlciBHYWluIjogMTMuMTg0NTk5NDcwMzg0MSwNCiAgIlBMTyBQb3dlciBBbXBsaXR1ZGUiOiAzLjksDQogICJBdXRvLUNhbGlicmF0aW9iIFBlcmZvcm0iOiAiTm9uZSIsDQogICJJbnRlcm5hbCBHYWluIFBlcmZvcm0iOiAiTWVhc3VyZW1lbnQgQ2hhbm5lbCINCn0=	

[DATADESCRIPTION]
Nb of measurements	1
Distance unit	m
Data type	Temperature
Data unit	°C
Measurement Mode	Absolute

[DATA]	
0.012	223.36101	
0.172	228.55274	
0.333	228.35042	
0.493	225.48762	
0.653	227.62403	
0.813	228.22297	
0.973	46.99722	
1.133	47.39384	
1.293	47.19776	
1.453	46.98741	
1.613	47.18528	
1.773	47.15587	
1.933	47.40899	
2.093	47.66746	
2.253	47.54268	
2.414	47.56942	
2.574	47.63092	
2.734	47.43306	
2.894	46.77885	
3.054	46.61129	
3.214	46.50969	
3.374	46.57653	
3.534	46.49988	
3.694	46.18704	
3.854	46.12911	
4.014	45.99452	
4.174	45.77883	
4.334	45.76457	
4.494	45.68525	
4.655	45.73249	
4.815	45.72981	
4.975	45.83677	
5.135	45.98115	
5.295	45.61305	
5.455	44.94281	
5.615	45.81983	
5.775	47.29758	
5.935	45.99898	
6.095	44.51054	
6.255	44.95439	
6.415	44.65314	
6.575	44.46508	
6.735	44.98113	
6.896	44.95796	
7.056	44.51588	
7.216	44.65314	
7.376	45.04976	
7.536	45.31447	
7.696	45.45084	
7.856	45.60325	
8.016	45.32873	
8.176	45.35102	
8.336	45.29932	
8.496	45.27169	
8.656	45.00163	
8.816	45.05689	
8.977	45.26011	
9.137	45.22802	
9.297	45.32250	
9.457	45.45351	
9.617	45.41697	
9.777	45.23961	
9.937	45.35904	
10.097	45.48471	
10.257	45.41697	
10.417	45.10324	
10.577	45.07294	
10.737	44.92231	
10.897	44.85279	
11.057	44.97757	
11.218	45.07383	
11.378	45.03818	
11.538	44.89824	
11.698	44.91161	
11.858	44.91696	
12.018	44.88933	
12.178	44.98559	
12.338	45.02481	
12.498	45.02124	
12.658	45.15583	
12.818	45.04531	
12.978	44.91072	
13.138	45.01233	
13.299	45.04531	
13.459	45.08720	
13.619	44.89914	
13.779	44.50162	
13.939	44.72266	
14.099	44.85368	
14.259	45.01768	
14.419	44.85724	
14.579	44.56045	
14.739	44.24582	
14.899	44.32871	
15.059	44.25295	
15.219	44.30554	
15.379	44.39734	
15.540	44.29039	
15.700	44.43032	
15.860	44.42319	
16.020	44.29841	
16.180	44.22354	
16.340	44.32426	
16.500	44.36793	
16.660	44.18254	
16.820	44.14243	
16.980	44.19146	
17.140	44.19413	
17.300	44.15759	
17.460	44.18343	
17.621	44.38219	
17.781	44.27880	
17.941	44.02835	
18.101	44.18611	
18.261	44.19146	
18.421	43.83405	
18.581	44.02033	
18.741	44.15670	
18.901	44.35902	
19.061	44.43923	
19.221	44.48112	
19.381	44.52747	
19.541	44.34832	
19.701	44.61927	
19.862	44.50519	
