[FILEINFO]
Version	2.0
Type	Profile
Date	2002-02-08 20:59:09

[DITEST]
Serial Number	13ST0246B	
Type	STA-R	

[MEASUREMENT]
Date	2002-02-08 20:10:00	
Measurement duration (s)	46.876	
File Name	L - 95_2002_02_08_20_10_01 793	
Sensor name	Erick 002	
Sensor ID	'200201050546332081614	
Sensor Length (m)	20.00	
Sample Count	125	
Spatial Resolution (m)	1.0	
Sampling Interval (ns)	4	
Gain contrast (%)	100.00	
Averaging	1000	
Pulse Rate (kHz)	8.5	
Frequency start (GHz)	10.5807	
Frequency stop (GHz)	10.9527	
Frequency step set (MHz)	2	
Frequency step actual (MHz)	2.0	
Nb of frequency peak	1	
Sensor configuration	Loop	
Frequency scan mode	Automatic	

[MAINTENANCEINFO]
Internal	ew0KICAiRURGQSBTdGF0dXMgRXJyb3IiOiAiTm8gRXJyb3IiLA0KICAiTGFzZXIgTGltaXQgQ3VycmVudCBNb25pdG9yIjogMC42OTMsDQogICJMYXNlciBDdXJyZW50IE1vbml0b3IiOiAwLjY5MywNCiAgIkxhc2VyIFBvd2VyIE1vbml0b3IiOiAwLjAwNSwNCiAgIkxhc2VyIFRlbXBlcmF0dXJlIE1vbml0b3IiOiAxLjU2NCwNCiAgIkxhc2VyIFNldCBQb2ludCBUZW1wZXJhdHVyZSBNb25pdG9yIjogMS41NjYsDQogICJQaG90byBEaW9kZSBWYWx1ZSI6IDAuODAyLA0KICAiRU9NIEJpYXNpbmcgVmFsdWUgKGZpbmUpIjogMS41NTksDQogICJFT00gQmlhc2luZyBWYWx1ZSAoZHJhZnQpIjogMC44MzYsDQogICJTeXN0ZW0gU3RhdHVzIjogIltMYXNlciBFbmFibGVkLCBFREZBIEVuYWJsZWQsIEVERkEgT24sIFN0YWJpbGl6YXRpb24gRW5hYmxlZCwgV2F0Y2hkb2cgRW5hYmxlZCwgS2V5IFR1cm4gT24sIE1lYXN1cmUgTW9kZV0iLA0KICAiQXR0ZW51YXRvciBQb3NpdGlvbiBWYWx1ZSI6IDEuOTUxLA0KICAiUHJvYmUgUG93ZXIgVmFsdWUiOiAyLjM4NywNCiAgIkVPTSBQb3dlciBPdXRwdXQiOiAwLjA0NywNCiAgIlRoZXJtaXN0b3IgVmFsdWUiOiAyNy4zMSwNCiAgIkZpcm13YXJlIFZlcnNpb24iOiAidiAxMzAyMjYtMCIsDQogICJMYXNlciBUZW1wZXJhdHVyZSI6IDEuMTU5LA0KICAiSW50ZXJuYWwgRmliZXIgR2FpbiI6IDEzLjU2MzIyMzU4Mzg2MzUsDQogICJQTE8gUG93ZXIgQW1wbGl0dWRlIjogMy45LA0KICAiQXV0by1DYWxpYnJhdGlvYiBQZXJmb3JtIjogIk1lYXN1cmVtZW50IENoYW5uZWwiLA0KICAiSW50ZXJuYWwgR2FpbiBQZXJmb3JtIjogIk1lYXN1cmVtZW50IENoYW5uZWwiDQp9	

[DATADESCRIPTION]
Nb of measurements	1
Distance unit	m
Data type	Temperature
Data unit	°C
Measurement Mode	Absolute

[DATA]	
0.012	218.49103	
0.172	220.52673	
0.333	220.08287	
0.493	217.19867	
0.653	217.66214	
0.813	218.54986	
0.973	41.44184	
1.133	41.99444	
1.293	41.98464	
1.453	41.94542	
1.613	42.07911	
1.773	42.07911	
1.933	42.11833	
2.093	42.11209	
2.253	42.29748	
2.414	42.26539	
2.574	41.95968	
2.734	41.66645	
2.894	41.59336	
3.054	41.68606	
3.214	41.75558	
3.374	41.95166	
3.534	42.02742	
3.694	41.82242	
3.854	41.89016	
4.014	41.61564	
4.174	41.22348	
4.334	40.98283	
4.494	41.15663	
4.655	41.30280	
4.815	41.07018	
4.975	40.91064	
5.135	40.42221	
5.295	40.14146	
5.455	39.76801	
5.615	40.59691	
5.775	41.44006	
5.935	40.57106	
6.095	39.31256	
6.255	39.60491	
6.415	39.62897	
6.575	40.16731	
6.735	40.71990	
6.896	40.32596	
7.056	39.68690	
7.216	39.70116	
7.376	40.25822	
7.536	40.52917	
7.696	40.70119	
7.856	40.36072	
8.016	40.24485	
8.176	40.28852	
8.336	40.31080	
8.496	40.00509	
8.656	39.90438	
8.816	40.07461	
8.977	40.08531	
9.137	40.25822	
9.297	40.13879	
9.457	40.03629	
9.617	40.24663	
9.777	40.06927	
9.937	40.07283	
10.097	40.33843	
10.257	40.63969	
10.417	39.91953	
10.577	39.81079	
10.737	39.97301	
10.897	39.66373	
11.057	39.56302	
11.218	39.98905	
11.378	39.89457	
11.538	39.54519	
11.698	39.78227	
11.858	39.94894	
12.018	39.55143	
12.178	39.70027	
12.338	40.01668	
12.498	39.78851	
12.658	40.07729	
12.818	40.12363	
12.978	39.86427	
13.138	40.07729	
13.299	40.23594	
13.459	40.23772	
13.619	39.81881	
13.779	39.79386	
13.939	39.96677	
14.099	39.62897	
14.259	39.78405	
14.419	40.08709	
14.579	39.26265	
14.739	39.52469	
14.899	39.62630	
15.059	39.26533	
15.219	39.27602	
15.379	39.43645	
15.540	39.14233	
15.700	39.13787	
15.860	39.45963	
16.020	39.35891	
16.180	38.89010	
16.340	39.29207	
16.500	39.46676	
16.660	39.21007	
16.820	39.05498	
16.980	39.24928	
17.140	39.06924	
17.300	39.21898	
17.460	39.13520	
17.621	39.27513	
17.781	39.18244	
17.941	39.09153	
18.101	38.99438	
18.261	39.02022	
18.421	38.67084	
18.581	38.54695	
18.741	38.83216	
18.901	38.88564	
19.061	39.08974	
19.221	39.20115	
19.381	39.58441	
19.541	39.57460	
19.701	39.27513	
19.862	39.48369	
