[FILEINFO]
Version	2.0
Type	Profile
Date	2002-02-08 21:02:02

[DITEST]
Serial Number	13ST0246B	
Type	STA-R	

[MEASUREMENT]
Date	2002-02-08 20:13:50	
Measurement duration (s)	46.177	
File Name	L - 100_2002_02_08_20_13_51 844	
Sensor name	Erick 002	
Sensor ID	'200201050546332081614	
Sensor Length (m)	20.00	
Sample Count	125	
Spatial Resolution (m)	1.0	
Sampling Interval (ns)	4	
Gain contrast (%)	100.00	
Averaging	1000	
Pulse Rate (kHz)	8.5	
Frequency start (GHz)	10.5967	
Frequency stop (GHz)	10.9527	
Frequency step set (MHz)	2	
Frequency step actual (MHz)	2.0	
Nb of frequency peak	1	
Sensor configuration	Loop	
Frequency scan mode	Automatic	

[MAINTENANCEINFO]
Internal	ew0KICAiRURGQSBTdGF0dXMgRXJyb3IiOiAiTm8gRXJyb3IiLA0KICAiTGFzZXIgTGltaXQgQ3VycmVudCBNb25pdG9yIjogMC42OTMsDQogICJMYXNlciBDdXJyZW50IE1vbml0b3IiOiAwLjY5MywNCiAgIkxhc2VyIFBvd2VyIE1vbml0b3IiOiAwLjAwNiwNCiAgIkxhc2VyIFRlbXBlcmF0dXJlIE1vbml0b3IiOiAxLjU1NiwNCiAgIkxhc2VyIFNldCBQb2ludCBUZW1wZXJhdHVyZSBNb25pdG9yIjogMS41NTcsDQogICJQaG90byBEaW9kZSBWYWx1ZSI6IDAuNzk1LA0KICAiRU9NIEJpYXNpbmcgVmFsdWUgKGZpbmUpIjogMS41NTgsDQogICJFT00gQmlhc2luZyBWYWx1ZSAoZHJhZnQpIjogMC44MzYsDQogICJTeXN0ZW0gU3RhdHVzIjogIltMYXNlciBFbmFibGVkLCBFREZBIEVuYWJsZWQsIEVERkEgT24sIFN0YWJpbGl6YXRpb24gRW5hYmxlZCwgV2F0Y2hkb2cgRW5hYmxlZCwgS2V5IFR1cm4gT24sIE1lYXN1cmUgTW9kZV0iLA0KICAiQXR0ZW51YXRvciBQb3NpdGlvbiBWYWx1ZSI6IDEuOTUxLA0KICAiUHJvYmUgUG93ZXIgVmFsdWUiOiAyLjM3OCwNCiAgIkVPTSBQb3dlciBPdXRwdXQiOiAwLjA0NiwNCiAgIlRoZXJtaXN0b3IgVmFsdWUiOiAyNy40NSwNCiAgIkZpcm13YXJlIFZlcnNpb24iOiAidiAxMzAyMjYtMCIsDQogICJMYXNlciBUZW1wZXJhdHVyZSI6IDEuMTU5LA0KICAiSW50ZXJuYWwgRmliZXIgR2FpbiI6IDEzLjQ0NjkwMjc1NjY0MzgsDQogICJQTE8gUG93ZXIgQW1wbGl0dWRlIjogMy45LA0KICAiQXV0by1DYWxpYnJhdGlvYiBQZXJmb3JtIjogIk5vbmUiLA0KICAiSW50ZXJuYWwgR2FpbiBQZXJmb3JtIjogIk1lYXN1cmVtZW50IENoYW5uZWwiDQp9	

[DATADESCRIPTION]
Nb of measurements	1
Distance unit	m
Data type	Temperature
Data unit	°C
Measurement Mode	Absolute

[DATA]	
0.012	219.92065	
0.172	221.18004	
0.333	220.87611	
0.493	217.31543	
0.653	218.08817	
0.813	218.40369	
0.973	41.88214	
1.133	42.26182	
1.293	42.34650	
1.453	42.42939	
1.613	42.44276	
1.773	42.43652	
1.933	42.52475	
2.093	42.52297	
2.253	42.63349	
2.414	42.59606	
2.574	42.41513	
2.734	42.21904	
2.894	41.97483	
3.054	41.80103	
3.214	41.89729	
3.374	42.26806	
3.534	42.35363	
3.694	42.12189	
3.854	42.25113	
4.014	41.74042	
4.174	41.37589	
4.334	41.25735	
4.494	41.21457	
4.655	41.55593	
4.815	41.41689	
4.975	41.28052	
5.135	40.81171	
5.295	40.33665	
5.455	40.13166	
5.615	40.84825	
5.775	41.37054	
5.935	40.49173	
6.095	39.67086	
6.255	39.71453	
6.415	39.95340	
6.575	40.28406	
6.735	40.80814	
6.896	40.66821	
7.056	39.91062	
7.216	40.20741	
7.376	40.57373	
7.536	40.93827	
7.696	40.98729	
7.856	40.82151	
8.016	40.74842	
8.176	40.68871	
8.336	40.65038	
8.496	40.44450	
8.656	40.26802	
8.816	40.36072	
8.977	40.50243	
9.137	40.56838	
9.297	40.54075	
9.457	40.53897	
9.617	40.59245	
9.777	40.48549	
9.937	40.41687	
10.097	40.65573	
10.257	40.80368	
10.417	40.35091	
10.577	40.18424	
10.737	40.31348	
10.897	39.98014	
11.057	40.08353	
11.218	40.26713	
11.378	40.06748	
11.538	40.03629	
11.698	40.23415	
11.858	40.22524	
12.018	40.03540	
12.178	40.07016	
12.338	40.17533	
12.498	39.88833	
12.658	40.35626	
12.818	40.51223	
12.978	40.17889	
13.138	40.40082	
13.299	40.50421	
13.459	40.38478	
13.619	40.04877	
13.779	39.83397	
13.939	40.12007	
14.099	39.98370	
14.259	39.99618	
14.419	40.24663	
14.579	39.55410	
14.739	39.69849	
14.899	39.89101	
15.059	39.47834	
15.219	39.55945	
15.379	39.61293	
15.540	39.60669	
15.700	39.30454	
15.860	39.71364	
16.020	39.87942	
16.180	39.35980	
16.340	39.54519	
16.500	39.64769	
16.660	39.33841	
16.820	39.16550	
16.980	39.24928	
17.140	39.23324	
17.300	39.04072	
17.460	39.23681	
17.621	39.23948	
17.781	39.15124	
17.941	39.01666	
18.101	39.19937	
18.261	38.91773	
18.421	38.68154	
18.581	38.80453	
18.741	38.81879	
18.901	39.03805	
19.061	39.03003	
19.221	39.14233	
19.381	39.42932	
19.541	39.34287	
19.701	39.25017	
19.862	39.47745	
