[FILEINFO]
Version	2.0
Type	Profile
Date	2002-02-08 20:58:55

[DITEST]
Serial Number	13ST0246B	
Type	STA-R	

[MEASUREMENT]
Date	2002-02-08 18:25:25	
Measurement duration (s)	92.048	
File Name	L - amb _2002_02_08_18_25_26 157	
Sensor name	Erick 002	
Sensor ID	'200201050546332081614	
Sensor Length (m)	20.00	
Sample Count	125	
Spatial Resolution (m)	1.0	
Sampling Interval (ns)	4	
Gain contrast (%)	100.00	
Averaging	1000	
Pulse Rate (kHz)	8.5	
Frequency start (GHz)	10.5807	
Frequency stop (GHz)	10.9487	
Frequency step set (MHz)	1	
Frequency step actual (MHz)	1.0	
Nb of frequency peak	1	
Sensor configuration	Loop	
Frequency scan mode	Automatic	

[MAINTENANCEINFO]
Internal	ew0KICAiRURGQSBTdGF0dXMgRXJyb3IiOiAiTm8gRXJyb3IiLA0KICAiTGFzZXIgTGltaXQgQ3VycmVudCBNb25pdG9yIjogMC42OTIsDQogICJMYXNlciBDdXJyZW50IE1vbml0b3IiOiAwLjY5MywNCiAgIkxhc2VyIFBvd2VyIE1vbml0b3IiOiAwLjAwNCwNCiAgIkxhc2VyIFRlbXBlcmF0dXJlIE1vbml0b3IiOiAxLjUyNywNCiAgIkxhc2VyIFNldCBQb2ludCBUZW1wZXJhdHVyZSBNb25pdG9yIjogMS41MjgsDQogICJQaG90byBEaW9kZSBWYWx1ZSI6IDAuNzkxLA0KICAiRU9NIEJpYXNpbmcgVmFsdWUgKGZpbmUpIjogMS41NjIsDQogICJFT00gQmlhc2luZyBWYWx1ZSAoZHJhZnQpIjogMC44MzYsDQogICJTeXN0ZW0gU3RhdHVzIjogIltMYXNlciBFbmFibGVkLCBFREZBIEVuYWJsZWQsIEVERkEgT24sIFN0YWJpbGl6YXRpb24gRW5hYmxlZCwgV2F0Y2hkb2cgRW5hYmxlZCwgS2V5IFR1cm4gT24sIE1lYXN1cmUgTW9kZV0iLA0KICAiQXR0ZW51YXRvciBQb3NpdGlvbiBWYWx1ZSI6IDEuOTUxLA0KICAiUHJvYmUgUG93ZXIgVmFsdWUiOiAxLjQ3NSwNCiAgIkVPTSBQb3dlciBPdXRwdXQiOiAwLjA0NywNCiAgIlRoZXJtaXN0b3IgVmFsdWUiOiAyNS4xLA0KICAiRmlybXdhcmUgVmVyc2lvbiI6ICJ2IDEzMDIyNi0wIiwNCiAgIkxhc2VyIFRlbXBlcmF0dXJlIjogMS4xODIsDQogICJJbnRlcm5hbCBGaWJlciBHYWluIjogMTMuNTA3OTk0Mzc3OTY3MiwNCiAgIlBMTyBQb3dlciBBbXBsaXR1ZGUiOiAzLjksDQogICJBdXRvLUNhbGlicmF0aW9iIFBlcmZvcm0iOiAiTWVhc3VyZW1lbnQgQ2hhbm5lbCIsDQogICJJbnRlcm5hbCBHYWluIFBlcmZvcm0iOiAiTWVhc3VyZW1lbnQgQ2hhbm5lbCINCn0=	

[DATADESCRIPTION]
Nb of measurements	1
Distance unit	m
Data type	Temperature
Data unit	°C
Measurement Mode	Absolute

[DATA]	
0.012	216.35730	
0.172	217.01952	
0.333	216.86890	
0.493	214.00520	
0.653	214.23159	
0.813	214.96511	
0.973	39.34822	
1.133	39.53182	
1.293	39.44269	
1.453	39.43467	
1.613	39.36872	
1.773	39.31078	
1.933	39.15035	
2.093	39.06657	
2.253	38.99348	
2.414	39.01488	
2.574	39.12450	
2.734	39.09777	
2.894	38.73679	
3.054	38.66549	
3.214	38.72966	
3.374	38.97031	
3.534	38.87405	
3.694	39.08707	
3.854	39.25909	
4.014	38.58706	
4.174	38.29204	
4.334	38.07101	
4.494	38.32413	
4.655	38.52734	
4.815	38.56032	
4.975	38.51041	
5.135	38.43376	
5.295	38.55497	
5.455	38.73947	
5.615	38.69936	
5.775	38.24213	
5.935	38.06655	
6.095	38.30274	
6.255	38.29383	
6.415	38.29472	
6.575	38.22074	
6.735	38.24926	
6.896	37.94355	
7.056	37.69221	
7.216	37.67973	
7.376	37.55852	
7.536	37.72519	
7.696	37.94177	
7.856	37.98099	
8.016	37.92483	
8.176	37.86601	
8.336	38.00862	
8.496	37.88829	
8.656	37.58526	
8.816	37.81877	
8.977	38.06655	
9.137	37.87492	
9.297	38.07368	
9.457	38.14142	
9.617	38.06833	
9.777	38.12448	
9.937	38.40256	
10.097	38.33928	
10.257	38.43108	
10.417	38.27333	
10.577	37.99703	
10.737	38.01040	
10.897	38.11290	
11.057	38.01218	
11.218	37.93464	
11.378	38.11824	
11.538	37.98990	
11.698	37.67706	
11.858	38.05764	
12.018	38.13161	
12.178	37.74747	
12.338	38.09418	
12.498	38.17529	
12.658	38.11468	
12.818	38.22609	
12.978	38.48991	
13.138	38.32948	
13.299	38.14587	
13.459	38.60132	
13.619	38.37850	
13.779	37.87671	
13.939	38.13340	
14.099	38.50239	
14.259	38.19668	
14.419	38.33215	
14.579	38.23500	
14.739	37.89899	
14.899	37.91057	
15.059	38.12359	
15.219	37.93018	
15.379	37.76529	
15.540	37.87849	
15.700	37.91681	
15.860	37.76440	
16.020	38.11913	
16.180	38.12537	
16.340	37.86155	
16.500	38.14766	
16.660	38.28848	
16.820	37.77777	
16.980	37.79471	
17.140	38.11290	
17.300	37.60041	
17.460	37.88384	
17.621	38.14320	
17.781	37.70825	
17.941	37.69756	
18.101	38.12448	
18.261	37.61021	
18.421	37.34639	
18.581	37.48365	
18.741	37.49702	
18.901	37.46137	
19.061	37.85353	
19.221	37.98009	
19.381	37.72519	
19.541	37.79738	
19.701	37.72162	
19.862	37.51663	
