[FILEINFO]
Version	2.0
Type	Profile
Date	2002-01-15 17:36:17

[DITEST]
Serial Number	13ST0246B	
Type	STA-R	

[MEASUREMENT]
Date	2002-01-11 20:04:59	
Measurement duration (s)	95.140	
File Name	I - 65_2002_01_11_20_05_00 352	
Sensor name	Erick 002	
Sensor ID	'200201050546332081614	
Sensor Length (m)	20.00	
Sample Count	125	
Spatial Resolution (m)	1.0	
Sampling Interval (ns)	4	
Gain contrast (%)	100.00	
Averaging	1000	
Pulse Rate (kHz)	8.5	
Frequency start (GHz)	10.5967	
Frequency stop (GHz)	10.9657	
Frequency step set (MHz)	1	
Frequency step actual (MHz)	1.0	
Nb of frequency peak	1	
Sensor configuration	Loop	
Frequency scan mode	Automatic	

[MAINTENANCEINFO]
Internal	ew0KICAiRURGQSBTdGF0dXMgRXJyb3IiOiAiTm8gRXJyb3IiLA0KICAiTGFzZXIgTGltaXQgQ3VycmVudCBNb25pdG9yIjogMC42OTQsDQogICJMYXNlciBDdXJyZW50IE1vbml0b3IiOiAwLjY5NCwNCiAgIkxhc2VyIFBvd2VyIE1vbml0b3IiOiAwLjAwNiwNCiAgIkxhc2VyIFRlbXBlcmF0dXJlIE1vbml0b3IiOiAxLjUyNiwNCiAgIkxhc2VyIFNldCBQb2ludCBUZW1wZXJhdHVyZSBNb25pdG9yIjogMS41MjcsDQogICJQaG90byBEaW9kZSBWYWx1ZSI6IDAuNzk3LA0KICAiRU9NIEJpYXNpbmcgVmFsdWUgKGZpbmUpIjogMS4yNzgsDQogICJFT00gQmlhc2luZyBWYWx1ZSAoZHJhZnQpIjogMC44MjksDQogICJTeXN0ZW0gU3RhdHVzIjogIltMYXNlciBFbmFibGVkLCBFREZBIEVuYWJsZWQsIEVERkEgT24sIFN0YWJpbGl6YXRpb24gRW5hYmxlZCwgV2F0Y2hkb2cgRW5hYmxlZCwgS2V5IFR1cm4gT24sIE1lYXN1cmUgTW9kZV0iLA0KICAiQXR0ZW51YXRvciBQb3NpdGlvbiBWYWx1ZSI6IDEuOTQ4LA0KICAiUHJvYmUgUG93ZXIgVmFsdWUiOiAyLjM1OSwNCiAgIkVPTSBQb3dlciBPdXRwdXQiOiAwLjA0NiwNCiAgIlRoZXJtaXN0b3IgVmFsdWUiOiAzMi44MSwNCiAgIkZpcm13YXJlIFZlcnNpb24iOiAidiAxMzAyMjYtMCIsDQogICJMYXNlciBUZW1wZXJhdHVyZSI6IDEuMDc0LA0KICAiSW50ZXJuYWwgRmliZXIgR2FpbiI6IDE0LjMyNjE2OTA0MjMwNCwNCiAgIlBMTyBQb3dlciBBbXBsaXR1ZGUiOiAzLjksDQogICJBdXRvLUNhbGlicmF0aW9iIFBlcmZvcm0iOiAiTm9uZSIsDQogICJJbnRlcm5hbCBHYWluIFBlcmZvcm0iOiAiTWVhc3VyZW1lbnQgQ2hhbm5lbCINCn0=	

[DATADESCRIPTION]
Nb of measurements	1
Distance unit	m
Data type	Temperature
Data unit	°C
Measurement Mode	Absolute

[DATA]	
0.012	225.81561	
0.172	230.84513	
0.333	230.38433	
0.493	227.21314	
0.653	229.20962	
0.813	229.74707	
0.973	47.58636	
1.133	47.79046	
1.293	47.69866	
1.453	47.71916	
1.613	47.78511	
1.773	47.83681	
1.933	48.09974	
2.093	48.22808	
2.253	48.06943	
2.414	48.06141	
2.574	48.28067	
2.734	48.12380	
2.894	47.72272	
3.054	47.44286	
3.214	47.34838	
3.374	47.43395	
3.534	47.70312	
3.694	47.28599	
3.854	47.34215	
4.014	47.05872	
4.174	46.76459	
4.334	46.55158	
4.494	46.75122	
4.655	46.84124	
4.815	46.96781	
4.975	46.93929	
5.135	46.89918	
5.295	46.38402	
5.455	45.56314	
5.615	45.36795	
5.775	44.98648	
5.935	45.36973	
6.095	45.35993	
6.255	45.51412	
6.415	45.56582	
6.575	45.44282	
6.735	46.04265	
6.896	45.88311	
7.056	45.54532	
7.216	45.54888	
7.376	45.74140	
7.536	46.26013	
7.696	46.23784	
7.856	46.24230	
8.016	45.93481	
8.176	45.93837	
8.336	45.86707	
8.496	45.85548	
8.656	45.58632	
8.816	45.72803	
8.977	45.89024	
9.137	45.79220	
9.297	45.99363	
9.457	46.05870	
9.617	45.92322	
9.777	45.89916	
9.937	45.76457	
10.097	46.06939	
10.257	46.17278	
10.417	45.69416	
10.577	45.72357	
10.737	45.59968	
10.897	45.43747	
11.057	45.54353	
11.218	45.57384	
11.378	45.58810	
11.538	45.37330	
11.698	45.35102	
11.858	45.61038	
12.018	45.41965	
12.178	45.56225	
12.338	45.61395	
12.498	45.49719	
12.658	45.68881	
12.818	45.63266	
12.978	45.51680	
13.138	45.59255	
13.299	45.64247	
13.459	45.67277	
13.619	45.43123	
13.779	45.20663	
13.939	45.37597	
14.099	45.45530	
14.259	45.67455	
14.419	45.57116	
14.579	45.14869	
14.739	45.09878	
14.899	45.13800	
15.059	44.92231	
15.219	45.14246	
15.379	45.16117	
15.540	45.03728	
15.700	45.08631	
15.860	45.35458	
16.020	45.04709	
16.180	44.97133	
16.340	45.12374	
16.500	45.14335	
16.660	45.03996	
16.820	45.01144	
16.980	45.00074	
17.140	45.07739	
17.300	44.94459	
17.460	44.98470	
17.621	45.31180	
17.781	45.12909	
17.941	44.96063	
18.101	45.02570	
18.261	44.94816	
18.421	44.74316	
18.581	44.80020	
18.741	45.12730	
18.901	45.16741	
19.061	45.16385	
19.221	45.22267	
19.381	45.32963	
19.541	45.25030	
19.701	45.38132	
19.862	45.34478	
