[FILEINFO]
Version	2.0
Type	Profile
Date	2002-01-15 18:00:43

[DITEST]
Serial Number	13ST0246B	
Type	STA-R	

[MEASUREMENT]
Date	2002-01-11 19:08:59	
Measurement duration (s)	95.919	
File Name	I - 10_2002_01_11_19_09_00 877	
Sensor name	Erick 002	
Sensor ID	'200201050546332081614	
Sensor Length (m)	20.00	
Sample Count	125	
Spatial Resolution (m)	1.0	
Sampling Interval (ns)	4	
Gain contrast (%)	100.00	
Averaging	1000	
Pulse Rate (kHz)	8.5	
Frequency start (GHz)	10.5807	
Frequency stop (GHz)	10.9627	
Frequency step set (MHz)	1	
Frequency step actual (MHz)	1.0	
Nb of frequency peak	1	
Sensor configuration	Loop	
Frequency scan mode	Automatic	

[MAINTENANCEINFO]
Internal	ew0KICAiRURGQSBTdGF0dXMgRXJyb3IiOiAiTm8gRXJyb3IiLA0KICAiTGFzZXIgTGltaXQgQ3VycmVudCBNb25pdG9yIjogMC42OTQsDQogICJMYXNlciBDdXJyZW50IE1vbml0b3IiOiAwLjY5NCwNCiAgIkxhc2VyIFBvd2VyIE1vbml0b3IiOiAwLjAwOCwNCiAgIkxhc2VyIFRlbXBlcmF0dXJlIE1vbml0b3IiOiAxLjUzMiwNCiAgIkxhc2VyIFNldCBQb2ludCBUZW1wZXJhdHVyZSBNb25pdG9yIjogMS41MzMsDQogICJQaG90byBEaW9kZSBWYWx1ZSI6IDAuNzg2LA0KICAiRU9NIEJpYXNpbmcgVmFsdWUgKGZpbmUpIjogMS4zMjksDQogICJFT00gQmlhc2luZyBWYWx1ZSAoZHJhZnQpIjogMC44MjksDQogICJTeXN0ZW0gU3RhdHVzIjogIltMYXNlciBFbmFibGVkLCBFREZBIEVuYWJsZWQsIEVERkEgT24sIFN0YWJpbGl6YXRpb24gRW5hYmxlZCwgV2F0Y2hkb2cgRW5hYmxlZCwgS2V5IFR1cm4gT24sIE1lYXN1cmUgTW9kZV0iLA0KICAiQXR0ZW51YXRvciBQb3NpdGlvbiBWYWx1ZSI6IDEuOTQ5LA0KICAiUHJvYmUgUG93ZXIgVmFsdWUiOiAyLjMzNywNCiAgIkVPTSBQb3dlciBPdXRwdXQiOiAwLjA0NiwNCiAgIlRoZXJtaXN0b3IgVmFsdWUiOiAzMS4zLA0KICAiRmlybXdhcmUgVmVyc2lvbiI6ICJ2IDEzMDIyNi0wIiwNCiAgIkxhc2VyIFRlbXBlcmF0dXJlIjogMS4wOSwNCiAgIkludGVybmFsIEZpYmVyIEdhaW4iOiAxMy45MTE2MjE4MTEzNjYzLA0KICAiUExPIFBvd2VyIEFtcGxpdHVkZSI6IDMuOSwNCiAgIkF1dG8tQ2FsaWJyYXRpb2IgUGVyZm9ybSI6ICJOb25lIiwNCiAgIkludGVybmFsIEdhaW4gUGVyZm9ybSI6ICJNZWFzdXJlbWVudCBDaGFubmVsIg0KfQ==	

[DATADESCRIPTION]
Nb of measurements	1
Distance unit	m
Data type	Temperature
Data unit	°C
Measurement Mode	Absolute

[DATA]	
0.012	222.83159	
0.172	227.24701	
0.333	227.21760	
0.493	224.46531	
0.653	226.58390	
0.813	227.64987	
0.973	46.06583	
1.133	46.35104	
1.293	46.27439	
1.453	46.19595	
1.613	46.24497	
1.773	46.26637	
1.933	46.57564	
2.093	46.73340	
2.253	46.65764	
2.414	46.66210	
2.574	46.80738	
2.734	46.64249	
2.894	45.96957	
3.054	45.82518	
3.214	45.49808	
3.374	45.62821	
3.534	45.55512	
3.694	45.17098	
3.854	45.15583	
4.014	44.91072	
4.174	44.68879	
4.334	44.77703	
4.494	44.65760	
4.655	44.65671	
4.815	44.52301	
4.975	44.61838	
5.135	44.89824	
5.295	44.57738	
5.455	44.36882	
5.615	46.07652	
5.775	49.34130	
5.935	46.27350	
6.095	43.26274	
6.255	43.94903	
6.415	43.43297	
6.575	43.39376	
6.735	43.81712	
6.896	43.67005	
7.056	43.52121	
7.216	43.76810	
7.376	44.07648	
7.536	44.09163	
7.696	44.28326	
7.856	44.53371	
8.016	44.48914	
8.176	44.42141	
8.336	44.41606	
8.496	44.43388	
8.656	44.19591	
8.816	44.08450	
8.977	44.32693	
9.137	44.31178	
9.297	44.31980	
9.457	44.61571	
9.617	44.50875	
9.777	44.37417	
9.937	44.47845	
10.097	44.65671	
10.257	44.52569	
10.417	44.33050	
10.577	44.25028	
10.737	44.16472	
10.897	44.10144	
11.057	44.21552	
11.218	44.22532	
11.378	44.16383	
11.538	44.12283	
11.698	43.87683	
11.858	44.08807	
12.018	44.02300	
12.178	44.11926	
12.338	44.17630	
12.498	44.18433	
12.658	44.25741	
12.818	44.17452	
12.978	44.04439	
13.138	44.26365	
13.299	44.15848	
13.459	44.18076	
13.619	44.07381	
13.779	43.85009	
13.939	43.95972	
14.099	44.09252	
14.259	44.09074	
14.419	44.14778	
14.579	43.85098	
14.739	43.67184	
14.899	43.58984	
15.059	43.57558	
15.219	43.61390	
15.379	43.57558	
15.540	43.80018	
15.700	43.64955	
15.860	43.73244	
16.020	43.62995	
16.180	43.54082	
16.340	43.69144	
16.500	43.74938	
16.660	43.75383	
16.820	43.58003	
16.980	43.68164	
17.140	43.61123	
17.300	43.56043	
17.460	43.58093	
17.621	43.78949	
17.781	43.67897	
17.941	43.52121	
18.101	43.58093	
18.261	43.44189	
18.421	43.22798	
18.581	43.41515	
18.741	43.75383	
18.901	43.75383	
19.061	43.77879	
19.221	43.91516	
19.381	43.74938	
19.541	43.80642	
19.701	43.93031	
19.862	43.76720	
