[FILEINFO]
Version	2.0
Type	Profile
Date	2002-01-15 17:35:43

[DITEST]
Serial Number	13ST0246B	
Type	STA-R	

[MEASUREMENT]
Date	2002-01-11 19:44:46	
Measurement duration (s)	94.517	
File Name	I - 45_2002_01_11_19_44_47 752	
Sensor name	Erick 002	
Sensor ID	'200201050546332081614	
Sensor Length (m)	20.00	
Sample Count	125	
Spatial Resolution (m)	1.0	
Sampling Interval (ns)	4	
Gain contrast (%)	100.00	
Averaging	1000	
Pulse Rate (kHz)	8.5	
Frequency start (GHz)	10.5967	
Frequency stop (GHz)	10.9647	
Frequency step set (MHz)	1	
Frequency step actual (MHz)	1.0	
Nb of frequency peak	1	
Sensor configuration	Loop	
Frequency scan mode	Automatic	

[MAINTENANCEINFO]
Internal	ew0KICAiRURGQSBTdGF0dXMgRXJyb3IiOiAiTm8gRXJyb3IiLA0KICAiTGFzZXIgTGltaXQgQ3VycmVudCBNb25pdG9yIjogMC42OTQsDQogICJMYXNlciBDdXJyZW50IE1vbml0b3IiOiAwLjY5NCwNCiAgIkxhc2VyIFBvd2VyIE1vbml0b3IiOiAwLjAwNiwNCiAgIkxhc2VyIFRlbXBlcmF0dXJlIE1vbml0b3IiOiAxLjUzMiwNCiAgIkxhc2VyIFNldCBQb2ludCBUZW1wZXJhdHVyZSBNb25pdG9yIjogMS41MzMsDQogICJQaG90byBEaW9kZSBWYWx1ZSI6IDAuNzkyLA0KICAiRU9NIEJpYXNpbmcgVmFsdWUgKGZpbmUpIjogMS4yOTUsDQogICJFT00gQmlhc2luZyBWYWx1ZSAoZHJhZnQpIjogMC44MjksDQogICJTeXN0ZW0gU3RhdHVzIjogIltMYXNlciBFbmFibGVkLCBFREZBIEVuYWJsZWQsIEVERkEgT24sIFN0YWJpbGl6YXRpb24gRW5hYmxlZCwgV2F0Y2hkb2cgRW5hYmxlZCwgS2V5IFR1cm4gT24sIE1lYXN1cmUgTW9kZV0iLA0KICAiQXR0ZW51YXRvciBQb3NpdGlvbiBWYWx1ZSI6IDEuOTQ4LA0KICAiUHJvYmUgUG93ZXIgVmFsdWUiOiAyLjM3LA0KICAiRU9NIFBvd2VyIE91dHB1dCI6IDAuMDQ3LA0KICAiVGhlcm1pc3RvciBWYWx1ZSI6IDMyLjQsDQogICJGaXJtd2FyZSBWZXJzaW9uIjogInYgMTMwMjI2LTAiLA0KICAiTGFzZXIgVGVtcGVyYXR1cmUiOiAxLjA5LA0KICAiSW50ZXJuYWwgRmliZXIgR2FpbiI6IDEzLjc4ODMxNjEzMTgxODQsDQogICJQTE8gUG93ZXIgQW1wbGl0dWRlIjogMy45LA0KICAiQXV0by1DYWxpYnJhdGlvYiBQZXJmb3JtIjogIk5vbmUiLA0KICAiSW50ZXJuYWwgR2FpbiBQZXJmb3JtIjogIk1lYXN1cmVtZW50IENoYW5uZWwiDQp9	

[DATADESCRIPTION]
Nb of measurements	1
Distance unit	m
Data type	Temperature
Data unit	°C
Measurement Mode	Absolute

[DATA]	
0.012	225.48673	
0.172	229.84422	
0.333	229.48948	
0.493	226.54646	
0.653	228.45203	
0.813	229.21853	
0.973	47.52753	
1.133	47.91079	
1.293	47.73788	
1.453	47.61221	
1.613	47.77264	
1.773	47.63003	
1.933	47.68351	
2.093	47.83770	
2.253	47.91079	
2.414	47.80561	
2.574	47.82344	
2.734	47.65944	
2.894	47.32789	
3.054	47.08902	
3.214	46.90631	
3.374	46.80024	
3.534	46.55603	
3.694	46.09435	
3.854	45.89203	
4.014	45.77794	
4.174	45.74853	
4.334	45.88579	
4.494	45.74942	
4.655	45.83677	
4.815	45.76636	
4.975	45.99007	
5.135	45.93837	
5.295	45.49095	
5.455	44.90894	
5.615	45.14424	
5.775	45.40717	
5.935	45.27347	
6.095	44.75118	
6.255	44.82427	
6.415	44.79842	
6.575	44.75475	
6.735	45.20395	
6.896	45.03372	
7.056	44.80644	
7.216	45.04887	
7.376	45.26367	
7.536	45.39202	
7.696	45.40538	
7.856	45.40984	
8.016	45.51858	
8.176	45.43836	
8.336	45.33141	
8.496	45.32250	
8.656	45.14959	
8.816	45.19682	
8.977	45.26278	
9.137	45.32428	
9.297	45.20395	
9.457	45.58097	
9.617	45.50521	
9.777	45.27615	
9.937	45.31180	
10.097	45.64514	
10.257	45.64692	
10.417	45.25030	
10.577	45.31358	
10.737	45.16919	
10.897	44.94637	
11.057	45.17543	
11.218	45.36884	
11.378	45.21465	
11.538	45.08809	
11.698	45.00252	
11.858	45.10146	
12.018	44.91072	
12.178	45.13711	
12.338	45.13354	
12.498	45.27437	
12.658	45.41252	
12.818	45.30467	
12.978	45.04976	
13.138	45.29219	
13.299	45.42856	
13.459	45.29308	
13.619	45.37330	
13.779	45.16741	
13.939	45.20663	
14.099	45.42678	
14.259	45.60325	
14.419	45.44371	
14.579	45.12017	
14.739	44.97133	
14.899	45.03639	
15.059	44.81625	
15.219	44.88042	
15.379	44.92231	
15.540	44.94905	
15.700	45.00252	
15.860	44.97133	
16.020	44.90983	
16.180	44.74494	
16.340	44.99094	
16.500	44.98202	
16.660	44.80288	
16.820	44.83140	
16.980	44.81892	
17.140	44.91340	
17.300	44.81179	
17.460	44.94548	
17.621	44.89379	
17.781	44.96687	
17.941	44.68523	
18.101	44.91250	
18.261	44.78772	
18.421	44.52301	
18.581	44.52212	
18.741	44.94548	
18.901	44.91696	
19.061	44.98024	
19.221	45.09076	
19.381	45.21019	
19.541	45.04263	
19.701	45.30556	
19.862	45.17632	
