[FILEINFO]
Version	2.0
Type	Profile
Date	2002-01-15 17:36:24

[DITEST]
Serial Number	13ST0246B	
Type	STA-R	

[MEASUREMENT]
Date	2002-01-11 20:10:02	
Measurement duration (s)	94.238	
File Name	I - 70_2002_01_11_20_10_03 654	
Sensor name	Erick 002	
Sensor ID	'200201050546332081614	
Sensor Length (m)	20.00	
Sample Count	125	
Spatial Resolution (m)	1.0	
Sampling Interval (ns)	4	
Gain contrast (%)	100.00	
Averaging	1000	
Pulse Rate (kHz)	8.5	
Frequency start (GHz)	10.5967	
Frequency stop (GHz)	10.9647	
Frequency step set (MHz)	1	
Frequency step actual (MHz)	1.0	
Nb of frequency peak	1	
Sensor configuration	Loop	
Frequency scan mode	Automatic	

[MAINTENANCEINFO]
Internal	ew0KICAiRURGQSBTdGF0dXMgRXJyb3IiOiAiTm8gRXJyb3IiLA0KICAiTGFzZXIgTGltaXQgQ3VycmVudCBNb25pdG9yIjogMC42OTQsDQogICJMYXNlciBDdXJyZW50IE1vbml0b3IiOiAwLjY5NCwNCiAgIkxhc2VyIFBvd2VyIE1vbml0b3IiOiAwLjAwNiwNCiAgIkxhc2VyIFRlbXBlcmF0dXJlIE1vbml0b3IiOiAxLjUyNiwNCiAgIkxhc2VyIFNldCBQb2ludCBUZW1wZXJhdHVyZSBNb25pdG9yIjogMS41MjcsDQogICJQaG90byBEaW9kZSBWYWx1ZSI6IDAuNzk1LA0KICAiRU9NIEJpYXNpbmcgVmFsdWUgKGZpbmUpIjogMS4yNzUsDQogICJFT00gQmlhc2luZyBWYWx1ZSAoZHJhZnQpIjogMC44MjksDQogICJTeXN0ZW0gU3RhdHVzIjogIltMYXNlciBFbmFibGVkLCBFREZBIEVuYWJsZWQsIEVERkEgT24sIFN0YWJpbGl6YXRpb24gRW5hYmxlZCwgV2F0Y2hkb2cgRW5hYmxlZCwgS2V5IFR1cm4gT24sIE1lYXN1cmUgTW9kZV0iLA0KICAiQXR0ZW51YXRvciBQb3NpdGlvbiBWYWx1ZSI6IDEuOTQ4LA0KICAiUHJvYmUgUG93ZXIgVmFsdWUiOiAyLjM2OSwNCiAgIkVPTSBQb3dlciBPdXRwdXQiOiAwLjA0NywNCiAgIlRoZXJtaXN0b3IgVmFsdWUiOiAzMy4wNCwNCiAgIkZpcm13YXJlIFZlcnNpb24iOiAidiAxMzAyMjYtMCIsDQogICJMYXNlciBUZW1wZXJhdHVyZSI6IDEuMDc0LA0KICAiSW50ZXJuYWwgRmliZXIgR2FpbiI6IDEzLjExMDgwMDM0NjUyNTYsDQogICJQTE8gUG93ZXIgQW1wbGl0dWRlIjogMy45LA0KICAiQXV0by1DYWxpYnJhdGlvYiBQZXJmb3JtIjogIk5vbmUiLA0KICAiSW50ZXJuYWwgR2FpbiBQZXJmb3JtIjogIk1lYXN1cmVtZW50IENoYW5uZWwiDQp9	

[DATADESCRIPTION]
Nb of measurements	1
Distance unit	m
Data type	Temperature
Data unit	°C
Measurement Mode	Absolute

[DATA]	
0.012	226.03130	
0.172	231.13836	
0.333	230.81037	
0.493	227.66324	
0.653	229.50642	
0.813	230.14369	
0.973	47.94911	
1.133	48.15945	
1.293	48.08102	
1.453	47.83770	
1.613	47.99189	
1.773	48.10330	
1.933	48.30652	
2.093	48.56321	
2.253	48.44556	
2.414	48.46160	
2.574	48.45090	
2.734	48.37960	
2.894	47.94287	
3.054	47.70668	
3.214	47.43306	
3.374	47.44197	
3.534	47.26193	
3.694	46.92057	
3.854	46.93216	
4.014	46.72538	
4.174	46.62555	
4.334	46.53999	
4.494	46.71112	
4.655	46.81094	
4.815	46.77351	
4.975	46.96068	
5.135	46.83411	
5.295	46.47493	
5.455	45.69416	
5.615	45.32606	
5.775	44.62729	
5.935	45.35280	
6.095	45.69327	
6.255	45.48204	
6.415	45.58275	
6.575	45.64871	
6.735	46.15139	
6.896	46.02661	
7.056	45.73694	
7.216	45.93748	
7.376	46.24052	
7.536	46.14604	
7.696	46.26191	
7.856	46.34123	
8.016	46.18793	
8.176	46.03374	
8.336	46.07741	
8.496	45.89381	
8.656	45.79398	
8.816	45.73427	
8.977	45.92144	
9.137	45.91431	
9.297	45.90896	
9.457	46.15763	
9.617	46.09791	
9.777	45.86618	
9.937	45.96422	
10.097	46.21111	
10.257	46.11039	
10.417	45.82874	
10.577	45.92857	
10.737	45.80468	
10.897	45.53373	
11.057	45.61751	
11.218	45.69683	
11.378	45.71733	
11.538	45.64960	
11.698	45.63890	
11.858	45.69683	
12.018	45.62999	
12.178	45.71466	
12.338	45.76546	
12.498	45.76636	
12.658	45.89203	
12.818	45.84479	
12.978	45.70040	
13.138	45.84835	
13.299	45.83231	
13.459	45.81270	
13.619	45.70218	
13.779	45.45886	
13.939	45.51323	
14.099	45.57027	
14.259	45.69149	
14.419	45.72892	
14.579	45.17989	
14.739	45.06224	
14.899	45.21554	
15.059	44.97311	
15.219	45.16117	
15.379	45.12196	
15.540	45.07204	
15.700	45.18613	
15.860	45.25119	
16.020	45.22802	
16.180	44.92855	
16.340	45.16385	
16.500	45.13800	
16.660	45.09254	
16.820	44.95350	
16.980	45.06937	
17.140	45.14780	
17.300	44.99361	
17.460	44.97757	
17.621	45.14602	
17.781	45.17187	
17.941	44.90627	
18.101	44.99361	
18.261	44.91963	
18.421	44.72979	
18.581	44.71553	
18.741	45.05244	
18.901	45.13711	
19.061	45.01857	
19.221	45.33854	
19.381	45.30467	
19.541	45.26189	
19.701	45.35547	
19.862	45.25654	
