[FILEINFO]
Version	2.0
Type	Profile
Date	2002-01-15 17:35:27

[DITEST]
Serial Number	13ST0246B	
Type	STA-R	

[MEASUREMENT]
Date	2002-01-11 19:35:04	
Measurement duration (s)	96.436	
File Name	I - 35_2002_01_11_19_35_05 842	
Sensor name	Erick 002	
Sensor ID	'200201050546332081614	
Sensor Length (m)	20.00	
Sample Count	125	
Spatial Resolution (m)	1.0	
Sampling Interval (ns)	4	
Gain contrast (%)	100.00	
Averaging	1000	
Pulse Rate (kHz)	8.5	
Frequency start (GHz)	10.5807	
Frequency stop (GHz)	10.9647	
Frequency step set (MHz)	1	
Frequency step actual (MHz)	1.0	
Nb of frequency peak	1	
Sensor configuration	Loop	
Frequency scan mode	Automatic	

[MAINTENANCEINFO]
Internal	ew0KICAiRURGQSBTdGF0dXMgRXJyb3IiOiAiTm8gRXJyb3IiLA0KICAiTGFzZXIgTGltaXQgQ3VycmVudCBNb25pdG9yIjogMC42OTQsDQogICJMYXNlciBDdXJyZW50IE1vbml0b3IiOiAwLjY5NCwNCiAgIkxhc2VyIFBvd2VyIE1vbml0b3IiOiAwLjAwNywNCiAgIkxhc2VyIFRlbXBlcmF0dXJlIE1vbml0b3IiOiAxLjUzMiwNCiAgIkxhc2VyIFNldCBQb2ludCBUZW1wZXJhdHVyZSBNb25pdG9yIjogMS41MzMsDQogICJQaG90byBEaW9kZSBWYWx1ZSI6IDAuNzg5LA0KICAiRU9NIEJpYXNpbmcgVmFsdWUgKGZpbmUpIjogMS4yNzIsDQogICJFT00gQmlhc2luZyBWYWx1ZSAoZHJhZnQpIjogMC44MjksDQogICJTeXN0ZW0gU3RhdHVzIjogIltMYXNlciBFbmFibGVkLCBFREZBIEVuYWJsZWQsIEVERkEgT24sIFN0YWJpbGl6YXRpb24gRW5hYmxlZCwgV2F0Y2hkb2cgRW5hYmxlZCwgS2V5IFR1cm4gT24sIE1lYXN1cmUgTW9kZV0iLA0KICAiQXR0ZW51YXRvciBQb3NpdGlvbiBWYWx1ZSI6IDEuOTQ4LA0KICAiUHJvYmUgUG93ZXIgVmFsdWUiOiAyLjM0NSwNCiAgIkVPTSBQb3dlciBPdXRwdXQiOiAwLjA0NiwNCiAgIlRoZXJtaXN0b3IgVmFsdWUiOiAzMi4wOSwNCiAgIkZpcm13YXJlIFZlcnNpb24iOiAidiAxMzAyMjYtMCIsDQogICJMYXNlciBUZW1wZXJhdHVyZSI6IDEuMDksDQogICJJbnRlcm5hbCBGaWJlciBHYWluIjogMTQuMDY2MjM2NjI4MTY0MiwNCiAgIlBMTyBQb3dlciBBbXBsaXR1ZGUiOiAzLjksDQogICJBdXRvLUNhbGlicmF0aW9iIFBlcmZvcm0iOiAiTm9uZSIsDQogICJJbnRlcm5hbCBHYWluIFBlcmZvcm0iOiAiTWVhc3VyZW1lbnQgQ2hhbm5lbCINCn0=	

[DATADESCRIPTION]
Nb of measurements	1
Distance unit	m
Data type	Temperature
Data unit	°C
Measurement Mode	Absolute

[DATA]	
0.012	225.21043	
0.172	229.68913	
0.333	229.20784	
0.493	225.88246	
0.653	227.82100	
0.813	228.64989	
0.973	46.81094	
1.133	47.18528	
1.293	47.17993	
1.453	47.13269	
1.613	47.09437	
1.773	47.19330	
1.933	47.31897	
2.093	47.55605	
2.253	47.44643	
2.414	47.23341	
2.574	47.47406	
2.734	47.26282	
2.894	46.85105	
3.054	46.70933	
3.214	46.47582	
3.374	46.56049	
3.534	46.56762	
3.694	46.21111	
3.854	46.17367	
4.014	45.88400	
4.174	45.63266	
4.334	45.64247	
4.494	45.50075	
4.655	45.42856	
4.815	45.50164	
4.975	45.62553	
5.135	45.69416	
5.295	45.33052	
5.455	44.68612	
5.615	45.31804	
5.775	46.07028	
5.935	45.38399	
6.095	44.43032	
6.255	44.74583	
6.415	44.48469	
6.575	44.58629	
6.735	44.93390	
6.896	44.93835	
7.056	44.63175	
7.216	44.68612	
7.376	44.91874	
7.536	45.20217	
7.696	45.42410	
7.856	45.44460	
8.016	45.18078	
8.176	45.26545	
8.336	45.22891	
8.496	45.20039	
8.656	44.89824	
8.816	44.99361	
8.977	44.97400	
9.137	45.05778	
9.297	45.15137	
9.457	45.23069	
9.617	45.31447	
9.777	45.08541	
9.937	45.12998	
10.097	45.39202	
10.257	45.37508	
10.417	45.11572	
10.577	45.02213	
10.737	44.89111	
10.897	44.86170	
11.057	44.95796	
11.218	44.97489	
11.378	44.91340	
11.538	44.80912	
11.698	44.74583	
11.858	44.79486	
12.018	44.85724	
12.178	44.88131	
12.338	45.02481	
12.498	44.96866	
12.658	45.00252	
12.818	44.96063	
12.978	44.82962	
13.138	44.96242	
13.299	44.98737	
13.459	45.12374	
13.619	44.80377	
13.779	44.53817	
13.939	44.66027	
14.099	44.75386	
14.259	44.90894	
14.419	44.82962	
14.579	44.35189	
14.739	44.34297	
14.899	44.38843	
15.059	44.23691	
15.219	44.31891	
15.379	44.48380	
15.540	44.41428	
15.700	44.43567	
15.860	44.27078	
16.020	44.37684	
16.180	44.28415	
16.340	44.37239	
16.500	44.38576	
16.660	44.20037	
16.820	44.27702	
16.980	44.21196	
17.140	44.30019	
17.300	44.25385	
17.460	44.18611	
17.621	44.35189	
17.781	44.32337	
17.941	44.09965	
18.101	44.34743	
18.261	44.18076	
18.421	44.02122	
18.581	44.07381	
18.741	44.33228	
18.901	44.41517	
19.061	44.51143	
19.221	44.61214	
19.381	44.60679	
19.541	44.42765	
19.701	44.65225	
19.862	44.55421	
