[FILEINFO]
Version	2.0
Type	Profile
Date	2002-01-15 17:36:29

[DITEST]
Serial Number	13ST0246B	
Type	STA-R	

[MEASUREMENT]
Date	2002-01-11 20:15:15	
Measurement duration (s)	94.873	
File Name	I - 75_2002_01_11_20_15_16 227	
Sensor name	Erick 002	
Sensor ID	'200201050546332081614	
Sensor Length (m)	20.00	
Sample Count	125	
Spatial Resolution (m)	1.0	
Sampling Interval (ns)	4	
Gain contrast (%)	100.00	
Averaging	1000	
Pulse Rate (kHz)	8.5	
Frequency start (GHz)	10.5807	
Frequency stop (GHz)	10.9657	
Frequency step set (MHz)	1	
Frequency step actual (MHz)	1.0	
Nb of frequency peak	1	
Sensor configuration	Loop	
Frequency scan mode	Automatic	

[MAINTENANCEINFO]
Internal	ew0KICAiRURGQSBTdGF0dXMgRXJyb3IiOiAiTm8gRXJyb3IiLA0KICAiTGFzZXIgTGltaXQgQ3VycmVudCBNb25pdG9yIjogMC42OTQsDQogICJMYXNlciBDdXJyZW50IE1vbml0b3IiOiAwLjY5NCwNCiAgIkxhc2VyIFBvd2VyIE1vbml0b3IiOiAwLjAwNSwNCiAgIkxhc2VyIFRlbXBlcmF0dXJlIE1vbml0b3IiOiAxLjUyNiwNCiAgIkxhc2VyIFNldCBQb2ludCBUZW1wZXJhdHVyZSBNb25pdG9yIjogMS41MjcsDQogICJQaG90byBEaW9kZSBWYWx1ZSI6IDAuNzk2LA0KICAiRU9NIEJpYXNpbmcgVmFsdWUgKGZpbmUpIjogMS4yNDksDQogICJFT00gQmlhc2luZyBWYWx1ZSAoZHJhZnQpIjogMC44MjksDQogICJTeXN0ZW0gU3RhdHVzIjogIltMYXNlciBFbmFibGVkLCBFREZBIEVuYWJsZWQsIEVERkEgT24sIFN0YWJpbGl6YXRpb24gRW5hYmxlZCwgV2F0Y2hkb2cgRW5hYmxlZCwgS2V5IFR1cm4gT24sIE1lYXN1cmUgTW9kZV0iLA0KICAiQXR0ZW51YXRvciBQb3NpdGlvbiBWYWx1ZSI6IDEuOTQ4LA0KICAiUHJvYmUgUG93ZXIgVmFsdWUiOiAyLjM2MiwNCiAgIkVPTSBQb3dlciBPdXRwdXQiOiAwLjA0NiwNCiAgIlRoZXJtaXN0b3IgVmFsdWUiOiAzMy4yMSwNCiAgIkZpcm13YXJlIFZlcnNpb24iOiAidiAxMzAyMjYtMCIsDQogICJMYXNlciBUZW1wZXJhdHVyZSI6IDEuMDc0LA0KICAiSW50ZXJuYWwgRmliZXIgR2FpbiI6IDEzLjcyNTk1OTAwMzU2MTgsDQogICJQTE8gUG93ZXIgQW1wbGl0dWRlIjogMy45LA0KICAiQXV0by1DYWxpYnJhdGlvYiBQZXJmb3JtIjogIk5vbmUiLA0KICAiSW50ZXJuYWwgR2FpbiBQZXJmb3JtIjogIk1lYXN1cmVtZW50IENoYW5uZWwiDQp9	

[DATADESCRIPTION]
Nb of measurements	1
Distance unit	m
Data type	Temperature
Data unit	°C
Measurement Mode	Absolute

[DATA]	
0.012	225.73539	
0.172	230.63389	
0.333	230.27649	
0.493	227.11510	
0.653	229.20695	
0.813	230.13477	
0.973	47.99278	
1.133	48.31899	
1.293	48.15678	
1.453	48.02130	
1.613	48.08369	
1.773	48.04002	
1.933	48.20313	
2.093	48.37782	
2.253	48.32880	
2.414	48.31543	
2.574	48.56142	
2.734	48.39119	
2.894	47.76461	
3.054	47.67370	
3.214	47.40543	
3.374	47.59794	
3.534	47.74144	
3.694	47.37780	
3.854	47.42414	
4.014	47.14250	
4.174	46.89294	
4.334	46.82253	
4.494	46.84392	
4.655	46.89918	
4.815	46.84214	
4.975	46.97405	
5.135	46.87511	
5.295	46.29043	
5.455	45.58275	
5.615	45.02124	
5.775	44.37952	
5.935	45.25119	
6.095	45.56314	
6.255	45.27526	
6.415	45.39202	
6.575	45.54532	
6.735	46.13089	
6.896	46.01502	
7.056	45.65405	
7.216	45.83498	
7.376	45.96511	
7.536	46.15317	
7.696	46.26458	
7.856	46.12109	
8.016	45.96689	
8.176	45.98026	
8.336	45.90183	
8.496	45.83498	
8.656	45.54264	
8.816	45.54888	
8.977	45.82161	
9.137	45.78507	
9.297	46.01146	
9.457	45.93303	
9.617	45.91698	
9.777	45.82251	
9.937	45.87420	
10.097	46.05424	
10.257	46.03463	
10.417	45.80290	
10.577	45.66475	
10.737	45.66742	
10.897	45.49095	
11.057	45.61840	
11.218	45.72090	
11.378	45.64960	
11.538	45.48738	
11.698	45.55869	
11.858	45.57829	
12.018	45.37508	
12.178	45.52482	
12.338	45.54977	
12.498	45.66207	
12.658	45.82607	
12.818	45.75655	
12.978	45.52838	
13.138	45.84746	
13.299	45.78507	
13.459	45.85014	
13.619	45.68881	
13.779	45.56403	
13.939	45.57206	
14.099	45.68079	
14.259	45.91876	
14.419	45.90272	
14.579	45.31804	
14.739	45.36884	
14.899	45.44995	
15.059	45.10680	
15.219	45.33497	
15.379	45.48293	
15.540	45.23158	
15.700	45.28239	
15.860	45.43123	
16.020	45.21287	
16.180	45.02392	
16.340	45.24763	
16.500	45.31537	
16.660	45.15493	
16.820	45.09076	
16.980	45.19059	
17.140	45.10235	
17.300	45.03996	
17.460	45.20930	
17.621	45.24674	
17.781	45.22624	
17.941	44.99718	
18.101	45.15137	
18.261	44.99985	
18.421	44.90537	
18.581	44.75386	
18.741	45.10146	
18.901	45.16830	
19.061	45.14513	
19.221	45.37508	
19.381	45.40004	
19.541	45.25119	
19.701	45.43925	
19.862	45.55245	
