[FILEINFO]
Version	2.0
Type	Profile
Date	2002-02-08 21:01:11

[DITEST]
Serial Number	13ST0246B	
Type	STA-R	

[MEASUREMENT]
Date	2002-02-08 19:03:03	
Measurement duration (s)	48.299	
File Name	L - 35_2002_02_08_19_03_04 682	
Sensor name	Erick 002	
Sensor ID	'200201050546332081614	
Sensor Length (m)	20.00	
Sample Count	125	
Spatial Resolution (m)	1.0	
Sampling Interval (ns)	4	
Gain contrast (%)	100.00	
Averaging	1000	
Pulse Rate (kHz)	8.5	
Frequency start (GHz)	10.5807	
Frequency stop (GHz)	10.9567	
Frequency step set (MHz)	2	
Frequency step actual (MHz)	2.0	
Nb of frequency peak	1	
Sensor configuration	Loop	
Frequency scan mode	Automatic	

[MAINTENANCEINFO]
Internal	ew0KICAiRURGQSBTdGF0dXMgRXJyb3IiOiAiTm8gRXJyb3IiLA0KICAiTGFzZXIgTGltaXQgQ3VycmVudCBNb25pdG9yIjogMC42OTMsDQogICJMYXNlciBDdXJyZW50IE1vbml0b3IiOiAwLjY5MywNCiAgIkxhc2VyIFBvd2VyIE1vbml0b3IiOiAwLjAwNiwNCiAgIkxhc2VyIFRlbXBlcmF0dXJlIE1vbml0b3IiOiAxLjU2NCwNCiAgIkxhc2VyIFNldCBQb2ludCBUZW1wZXJhdHVyZSBNb25pdG9yIjogMS41NjYsDQogICJQaG90byBEaW9kZSBWYWx1ZSI6IDAuODA1LA0KICAiRU9NIEJpYXNpbmcgVmFsdWUgKGZpbmUpIjogMS41OSwNCiAgIkVPTSBCaWFzaW5nIFZhbHVlIChkcmFmdCkiOiAwLjgzNiwNCiAgIlN5c3RlbSBTdGF0dXMiOiAiW0xhc2VyIEVuYWJsZWQsIEVERkEgRW5hYmxlZCwgRURGQSBPbiwgU3RhYmlsaXphdGlvbiBFbmFibGVkLCBXYXRjaGRvZyBFbmFibGVkLCBLZXkgVHVybiBPbiwgTWVhc3VyZSBNb2RlXSIsDQogICJBdHRlbnVhdG9yIFBvc2l0aW9uIFZhbHVlIjogMS45NTEsDQogICJQcm9iZSBQb3dlciBWYWx1ZSI6IDIuMzY0LA0KICAiRU9NIFBvd2VyIE91dHB1dCI6IDAuMDQ2LA0KICAiVGhlcm1pc3RvciBWYWx1ZSI6IDI2LjI5LA0KICAiRmlybXdhcmUgVmVyc2lvbiI6ICJ2IDEzMDIyNi0wIiwNCiAgIkxhc2VyIFRlbXBlcmF0dXJlIjogMS4xODIsDQogICJJbnRlcm5hbCBGaWJlciBHYWluIjogMTMuNDU5NDgwNDgzOTMzMywNCiAgIlBMTyBQb3dlciBBbXBsaXR1ZGUiOiAzLjksDQogICJBdXRvLUNhbGlicmF0aW9iIFBlcmZvcm0iOiAiTm9uZSIsDQogICJJbnRlcm5hbCBHYWluIFBlcmZvcm0iOiAiTWVhc3VyZW1lbnQgQ2hhbm5lbCINCn0=	

[DATADESCRIPTION]
Nb of measurements	1
Distance unit	m
Data type	Temperature
Data unit	°C
Measurement Mode	Absolute

[DATA]	
0.012	217.07657	
0.172	218.99104	
0.333	218.61849	
0.493	215.61219	
0.653	216.18974	
0.813	217.34573	
0.973	40.56571	
1.133	41.23596	
1.293	41.15931	
1.453	41.22259	
1.613	41.23685	
1.773	41.26091	
1.933	41.34737	
2.093	41.33222	
2.253	41.67179	
2.414	41.64506	
2.574	41.30280	
2.734	40.97838	
2.894	40.61295	
3.054	40.63790	
3.214	40.58799	
3.374	40.98640	
3.534	41.07463	
3.694	40.52026	
3.854	40.50065	
4.014	39.87853	
4.174	39.67977	
4.334	39.49350	
4.494	39.67888	
4.655	39.91596	
4.815	39.71097	
4.975	39.74662	
5.135	39.32683	
5.295	38.91594	
5.455	39.01755	
5.615	42.31798	
5.775	46.59168	
5.935	41.87055	
6.095	37.77421	
6.255	38.82860	
6.415	38.70025	
6.575	39.01666	
6.735	39.15926	
6.896	39.04429	
7.056	38.41237	
7.216	38.50684	
7.376	38.75819	
7.536	39.45071	
7.696	39.67353	
7.856	39.51310	
8.016	39.33396	
8.176	39.41417	
8.336	39.43913	
8.496	39.00418	
8.656	38.97031	
8.816	39.17887	
8.977	39.36248	
9.137	39.37763	
9.297	39.24572	
9.457	39.30276	
9.617	39.22611	
9.777	39.21987	
9.937	39.13876	
10.097	39.43467	
10.257	39.61025	
10.417	39.24304	
10.577	39.09509	
10.737	39.07727	
10.897	38.92931	
11.057	38.89277	
11.218	38.75729	
11.378	38.93109	
11.538	38.95338	
11.698	38.80899	
11.858	39.01131	
12.018	38.99259	
12.178	38.88653	
12.338	39.05320	
12.498	38.79473	
12.658	39.07014	
12.818	39.27067	
12.978	39.03627	
13.138	39.28493	
13.299	39.35000	
13.459	39.32415	
13.619	38.90347	
13.779	38.72699	
13.939	38.88207	
14.099	38.91416	
14.259	39.00864	
14.419	39.06924	
14.579	38.66460	
14.739	38.64767	
14.899	38.52289	
15.059	38.39276	
15.219	38.38652	
15.379	38.26887	
15.540	38.44980	
15.700	38.36067	
15.860	38.48902	
16.020	38.55319	
16.180	38.29828	
16.340	38.36869	
16.500	38.37850	
16.660	38.22698	
16.820	37.97029	
16.980	37.98009	
17.140	38.01218	
17.300	37.88473	
17.460	37.97742	
17.621	38.20292	
17.781	37.95246	
17.941	37.96227	
18.101	38.05674	
18.261	37.69845	
18.421	37.45245	
18.581	37.54960	
18.741	37.51841	
18.901	37.62625	
19.061	37.84373	
19.221	37.83392	
19.381	37.96583	
19.541	38.02020	
19.701	37.91325	
19.862	37.80986	
