[FILEINFO]
Version	2.0
Type	Profile
Date	2002-02-08 21:01:40

[DITEST]
Serial Number	13ST0246B	
Type	STA-R	

[MEASUREMENT]
Date	2002-02-08 18:48:01	
Measurement duration (s)	48.232	
File Name	L - 20_2002_02_08_18_48_02 097	
Sensor name	Erick 002	
Sensor ID	'200201050546332081614	
Sensor Length (m)	20.00	
Sample Count	125	
Spatial Resolution (m)	1.0	
Sampling Interval (ns)	4	
Gain contrast (%)	100.00	
Averaging	1000	
Pulse Rate (kHz)	8.5	
Frequency start (GHz)	10.5807	
Frequency stop (GHz)	10.9487	
Frequency step set (MHz)	2	
Frequency step actual (MHz)	2.0	
Nb of frequency peak	1	
Sensor configuration	Loop	
Frequency scan mode	Automatic	

[MAINTENANCEINFO]
Internal	ew0KICAiRURGQSBTdGF0dXMgRXJyb3IiOiAiTm8gRXJyb3IiLA0KICAiTGFzZXIgTGltaXQgQ3VycmVudCBNb25pdG9yIjogMC42OTMsDQogICJMYXNlciBDdXJyZW50IE1vbml0b3IiOiAwLjY5MywNCiAgIkxhc2VyIFBvd2VyIE1vbml0b3IiOiAwLjAwNSwNCiAgIkxhc2VyIFRlbXBlcmF0dXJlIE1vbml0b3IiOiAxLjU2NCwNCiAgIkxhc2VyIFNldCBQb2ludCBUZW1wZXJhdHVyZSBNb25pdG9yIjogMS41NjYsDQogICJQaG90byBEaW9kZSBWYWx1ZSI6IDAuODA2LA0KICAiRU9NIEJpYXNpbmcgVmFsdWUgKGZpbmUpIjogMS41NzEsDQogICJFT00gQmlhc2luZyBWYWx1ZSAoZHJhZnQpIjogMC44MzYsDQogICJTeXN0ZW0gU3RhdHVzIjogIltMYXNlciBFbmFibGVkLCBFREZBIEVuYWJsZWQsIEVERkEgT24sIFN0YWJpbGl6YXRpb24gRW5hYmxlZCwgV2F0Y2hkb2cgRW5hYmxlZCwgS2V5IFR1cm4gT24sIE1lYXN1cmUgTW9kZV0iLA0KICAiQXR0ZW51YXRvciBQb3NpdGlvbiBWYWx1ZSI6IDEuOTUxLA0KICAiUHJvYmUgUG93ZXIgVmFsdWUiOiAyLjM4MywNCiAgIkVPTSBQb3dlciBPdXRwdXQiOiAwLjA0OCwNCiAgIlRoZXJtaXN0b3IgVmFsdWUiOiAyNS43NywNCiAgIkZpcm13YXJlIFZlcnNpb24iOiAidiAxMzAyMjYtMCIsDQogICJMYXNlciBUZW1wZXJhdHVyZSI6IDEuMTgyLA0KICAiSW50ZXJuYWwgRmliZXIgR2FpbiI6IDEzLjQ2MTUxOTkzMDYyMjQsDQogICJQTE8gUG93ZXIgQW1wbGl0dWRlIjogMy45LA0KICAiQXV0by1DYWxpYnJhdGlvYiBQZXJmb3JtIjogIk5vbmUiLA0KICAiSW50ZXJuYWwgR2FpbiBQZXJmb3JtIjogIk1lYXN1cmVtZW50IENoYW5uZWwiDQp9	

[DATADESCRIPTION]
Nb of measurements	1
Distance unit	m
Data type	Temperature
Data unit	°C
Measurement Mode	Absolute

[DATA]	
0.012	217.48567	
0.172	218.29050	
0.333	217.99905	
0.493	215.01235	
0.653	215.31182	
0.813	216.08813	
0.973	40.12007	
1.133	40.03629	
1.293	40.03094	
1.453	40.36785	
1.613	40.21365	
1.773	40.43202	
1.933	40.34824	
2.093	40.22257	
2.253	40.33843	
2.414	40.16909	
2.574	40.19226	
2.734	39.95785	
2.894	39.43645	
3.054	39.57193	
3.214	39.48726	
3.374	39.76979	
3.534	39.87942	
3.694	39.67532	
3.854	39.70473	
4.014	39.27067	
4.174	38.98012	
4.334	38.77512	
4.494	38.85177	
4.655	38.80097	
4.815	38.78492	
4.975	38.62449	
5.135	38.35533	
5.295	37.90255	
5.455	38.33661	
5.615	43.10409	
5.775	49.49816	
5.935	42.55060	
6.095	36.97473	
6.255	38.04694	
6.415	37.71093	
6.575	37.95068	
6.735	38.18063	
6.896	37.98366	
7.056	37.53802	
7.216	37.82412	
7.376	37.93107	
7.536	38.25372	
7.696	38.51219	
7.856	38.43732	
8.016	38.57993	
8.176	38.44534	
8.336	38.60667	
8.496	38.44178	
8.656	38.28491	
8.816	38.42217	
8.977	38.63430	
9.137	38.45426	
9.297	38.62806	
9.457	38.59062	
9.617	38.64856	
9.777	38.58884	
9.937	38.68777	
10.097	38.90614	
10.257	38.83216	
10.417	38.58082	
10.577	38.45782	
10.737	38.42306	
10.897	38.50595	
11.057	38.47297	
11.218	38.33393	
11.378	38.47119	
11.538	38.39900	
11.698	38.21628	
11.858	38.67975	
12.018	38.54784	
12.178	38.27244	
12.338	38.43465	
12.498	38.66817	
12.658	38.68956	
12.818	38.63430	
12.978	38.89723	
13.138	38.67262	
13.299	38.72075	
13.459	38.94179	
13.619	38.67530	
13.779	38.18866	
13.939	38.53180	
14.099	38.84375	
14.259	38.72877	
14.419	38.61291	
14.579	38.66014	
14.739	38.24481	
14.899	38.19757	
15.059	38.28759	
15.219	38.26976	
15.379	38.02555	
15.540	38.29115	
15.700	38.23678	
15.860	38.10309	
16.020	38.44624	
16.180	38.36335	
16.340	38.07903	
16.500	38.53804	
16.660	38.42930	
16.820	37.98901	
16.980	38.16370	
17.140	38.16459	
17.300	38.14498	
17.460	38.17083	
17.621	38.29739	
17.781	38.17974	
17.941	38.12894	
18.101	38.35265	
18.261	38.04159	
18.421	37.73677	
18.581	37.90879	
18.741	37.80362	
18.901	37.73053	
19.061	38.21361	
19.221	38.21718	
19.381	38.33393	
19.541	38.18955	
19.701	38.14766	
19.862	37.98277	
