[FILEINFO]
Version	2.0
Type	Profile
Date	2002-02-08 21:03:06

[DITEST]
Serial Number	13ST0246B	
Type	STA-R	

[MEASUREMENT]
Date	2002-02-08 18:27:37	
Measurement duration (s)	50.660	
File Name	L - 00 _2002_02_08_18_27_38 000	
Sensor name	Erick 002	
Sensor ID	'200201050546332081614	
Sensor Length (m)	20.00	
Sample Count	125	
Spatial Resolution (m)	1.0	
Sampling Interval (ns)	4	
Gain contrast (%)	100.00	
Averaging	1000	
Pulse Rate (kHz)	8.5	
Frequency start (GHz)	10.5807	
Frequency stop (GHz)	10.9507	
Frequency step set (MHz)	2	
Frequency step actual (MHz)	2.0	
Nb of frequency peak	1	
Sensor configuration	Loop	
Frequency scan mode	Automatic	

[MAINTENANCEINFO]
Internal	ew0KICAiRURGQSBTdGF0dXMgRXJyb3IiOiAiTm8gRXJyb3IiLA0KICAiTGFzZXIgTGltaXQgQ3VycmVudCBNb25pdG9yIjogMC42OTMsDQogICJMYXNlciBDdXJyZW50IE1vbml0b3IiOiAwLjY5MywNCiAgIkxhc2VyIFBvd2VyIE1vbml0b3IiOiAwLjAwNiwNCiAgIkxhc2VyIFRlbXBlcmF0dXJlIE1vbml0b3IiOiAxLjU2NCwNCiAgIkxhc2VyIFNldCBQb2ludCBUZW1wZXJhdHVyZSBNb25pdG9yIjogMS41NjYsDQogICJQaG90byBEaW9kZSBWYWx1ZSI6IDAuNzk4LA0KICAiRU9NIEJpYXNpbmcgVmFsdWUgKGZpbmUpIjogMS41NzIsDQogICJFT00gQmlhc2luZyBWYWx1ZSAoZHJhZnQpIjogMC44MzYsDQogICJTeXN0ZW0gU3RhdHVzIjogIltMYXNlciBFbmFibGVkLCBFREZBIEVuYWJsZWQsIEVERkEgT24sIFN0YWJpbGl6YXRpb24gRW5hYmxlZCwgV2F0Y2hkb2cgRW5hYmxlZCwgS2V5IFR1cm4gT24sIE1lYXN1cmUgTW9kZV0iLA0KICAiQXR0ZW51YXRvciBQb3NpdGlvbiBWYWx1ZSI6IDEuOTUyLA0KICAiUHJvYmUgUG93ZXIgVmFsdWUiOiAyLjQwNCwNCiAgIkVPTSBQb3dlciBPdXRwdXQiOiAwLjA0NSwNCiAgIlRoZXJtaXN0b3IgVmFsdWUiOiAyNS4xNCwNCiAgIkZpcm13YXJlIFZlcnNpb24iOiAidiAxMzAyMjYtMCIsDQogICJMYXNlciBUZW1wZXJhdHVyZSI6IDEuMTgyLA0KICAiSW50ZXJuYWwgRmliZXIgR2FpbiI6IDEzLjUyNTkxNjAwNTEyNTEsDQogICJQTE8gUG93ZXIgQW1wbGl0dWRlIjogMy45LA0KICAiQXV0by1DYWxpYnJhdGlvYiBQZXJmb3JtIjogIk5vbmUiLA0KICAiSW50ZXJuYWwgR2FpbiBQZXJmb3JtIjogIk1lYXN1cmVtZW50IENoYW5uZWwiDQp9	

[DATADESCRIPTION]
Nb of measurements	1
Distance unit	m
Data type	Temperature
Data unit	°C
Measurement Mode	Absolute

[DATA]	
0.012	214.11839	
0.172	217.38495	
0.333	217.29939	
0.493	214.29041	
0.653	214.75031	
0.813	215.12733	
0.973	40.24930	
1.133	39.88655	
1.293	39.74929	
1.453	39.83486	
1.613	39.61204	
1.773	39.51043	
1.933	39.58975	
2.093	39.27780	
2.253	39.55410	
2.414	39.74127	
2.574	39.71721	
2.734	39.64234	
2.894	39.33663	
3.054	39.23146	
3.214	39.15570	
3.374	39.40080	
3.534	39.38654	
3.694	39.46319	
3.854	39.34376	
4.014	38.63697	
4.174	38.07635	
4.334	38.12983	
4.494	38.24837	
4.655	38.24213	
4.815	38.31433	
4.975	38.11913	
5.135	37.94088	
5.295	37.67438	
5.455	38.85177	
5.615	46.82966	
5.775	57.89674	
5.935	45.32071	
6.095	37.54515	
6.255	37.86512	
6.415	37.22785	
6.575	37.33748	
6.735	37.43908	
6.896	37.21626	
7.056	36.98809	
7.216	36.99077	
7.376	37.09505	
7.536	37.58347	
7.696	38.03268	
7.856	37.92840	
8.016	38.06031	
8.176	37.77599	
8.336	38.07992	
8.496	38.07011	
8.656	37.70558	
8.816	37.88918	
8.977	38.19311	
9.137	38.03179	
9.297	38.21094	
9.457	38.49793	
9.617	38.27065	
9.777	38.35533	
9.937	38.54873	
10.097	38.55230	
10.257	38.47921	
10.417	38.39543	
10.577	38.15568	
10.737	38.05318	
10.897	38.30541	
11.057	38.26531	
11.218	38.03001	
11.378	38.24302	
11.538	38.03714	
11.698	37.97742	
11.858	38.12270	
12.018	38.21985	
12.178	37.97118	
12.338	38.14053	
12.498	38.51219	
12.658	37.97742	
12.818	38.40167	
12.978	38.42128	
13.138	38.31254	
13.299	38.31522	
13.459	38.50863	
13.619	38.41415	
13.779	37.84997	
13.939	38.19846	
14.099	38.40167	
14.259	38.30096	
14.419	38.13161	
14.579	38.45158	
14.739	37.99346	
14.899	37.93731	
15.059	38.10844	
15.219	37.87136	
15.379	37.70647	
15.540	37.90968	
15.700	37.94890	
15.860	37.78936	
16.020	38.13340	
16.180	38.27689	
16.340	37.76084	
16.500	38.11468	
16.660	38.09774	
16.820	37.62002	
16.980	38.03001	
17.140	37.97207	
17.300	37.82590	
17.460	37.93197	
17.621	38.05585	
17.781	37.85621	
17.941	37.80986	
18.101	38.12627	
18.261	37.65834	
18.421	37.30272	
18.581	37.70112	
18.741	37.49969	
18.901	37.41769	
19.061	37.99881	
19.221	38.07546	
19.381	37.86512	
19.541	38.05051	
19.701	37.91503	
19.862	37.61734	
