[FILEINFO]
Version	2.0
Type	Profile
Date	2002-02-08 21:00:42

[DITEST]
Serial Number	13ST0246B	
Type	STA-R	

[MEASUREMENT]
Date	2002-02-08 19:18:19	
Measurement duration (s)	47.938	
File Name	L - 50_2002_02_08_19_18_20 092	
Sensor name	Erick 002	
Sensor ID	'200201050546332081614	
Sensor Length (m)	20.00	
Sample Count	125	
Spatial Resolution (m)	1.0	
Sampling Interval (ns)	4	
Gain contrast (%)	100.00	
Averaging	1000	
Pulse Rate (kHz)	8.5	
Frequency start (GHz)	10.5807	
Frequency stop (GHz)	10.9527	
Frequency step set (MHz)	2	
Frequency step actual (MHz)	2.0	
Nb of frequency peak	1	
Sensor configuration	Loop	
Frequency scan mode	Automatic	

[MAINTENANCEINFO]
Internal	ew0KICAiRURGQSBTdGF0dXMgRXJyb3IiOiAiTm8gRXJyb3IiLA0KICAiTGFzZXIgTGltaXQgQ3VycmVudCBNb25pdG9yIjogMC42OTMsDQogICJMYXNlciBDdXJyZW50IE1vbml0b3IiOiAwLjY5MywNCiAgIkxhc2VyIFBvd2VyIE1vbml0b3IiOiAwLjAwNiwNCiAgIkxhc2VyIFRlbXBlcmF0dXJlIE1vbml0b3IiOiAxLjU2NCwNCiAgIkxhc2VyIFNldCBQb2ludCBUZW1wZXJhdHVyZSBNb25pdG9yIjogMS41NjYsDQogICJQaG90byBEaW9kZSBWYWx1ZSI6IDAuNzk2LA0KICAiRU9NIEJpYXNpbmcgVmFsdWUgKGZpbmUpIjogMS41MywNCiAgIkVPTSBCaWFzaW5nIFZhbHVlIChkcmFmdCkiOiAwLjgzNiwNCiAgIlN5c3RlbSBTdGF0dXMiOiAiW0xhc2VyIEVuYWJsZWQsIEVERkEgRW5hYmxlZCwgRURGQSBPbiwgU3RhYmlsaXphdGlvbiBFbmFibGVkLCBXYXRjaGRvZyBFbmFibGVkLCBLZXkgVHVybiBPbiwgTWVhc3VyZSBNb2RlXSIsDQogICJBdHRlbnVhdG9yIFBvc2l0aW9uIFZhbHVlIjogMS45NTEsDQogICJQcm9iZSBQb3dlciBWYWx1ZSI6IDIuMzkxLA0KICAiRU9NIFBvd2VyIE91dHB1dCI6IDAuMDQ0LA0KICAiVGhlcm1pc3RvciBWYWx1ZSI6IDI2Ljc2LA0KICAiRmlybXdhcmUgVmVyc2lvbiI6ICJ2IDEzMDIyNi0wIiwNCiAgIkxhc2VyIFRlbXBlcmF0dXJlIjogMS4xODIsDQogICJJbnRlcm5hbCBGaWJlciBHYWluIjogMTMuNTgyOTcyNjk2NTEyMSwNCiAgIlBMTyBQb3dlciBBbXBsaXR1ZGUiOiAzLjksDQogICJBdXRvLUNhbGlicmF0aW9iIFBlcmZvcm0iOiAiTm9uZSIsDQogICJJbnRlcm5hbCBHYWluIFBlcmZvcm0iOiAiTWVhc3VyZW1lbnQgQ2hhbm5lbCINCn0=	

[DATADESCRIPTION]
Nb of measurements	1
Distance unit	m
Data type	Temperature
Data unit	°C
Measurement Mode	Absolute

[DATA]	
0.012	217.03289	
0.172	219.43223	
0.333	219.23882	
0.493	215.92235	
0.653	216.50704	
0.813	217.30830	
0.973	40.54254	
1.133	40.89816	
1.293	40.90975	
1.453	40.92579	
1.613	41.02205	
1.773	41.44184	
1.933	41.51136	
2.093	41.61653	
2.253	41.47749	
2.414	41.00333	
2.574	40.60136	
2.734	40.37587	
2.894	40.06837	
3.054	39.96409	
3.214	40.48728	
3.374	40.76714	
3.534	40.53897	
3.694	40.25376	
3.854	40.74397	
4.014	40.46410	
4.174	40.01044	
4.334	39.80099	
4.494	39.69136	
4.655	39.74038	
4.815	39.55945	
4.975	39.52380	
5.135	39.30633	
5.295	38.81255	
5.455	39.01933	
5.615	41.10316	
5.775	44.19680	
5.935	40.75021	
6.095	37.96316	
6.255	38.80364	
6.415	38.81166	
6.575	38.98368	
6.735	39.34287	
6.896	38.96853	
7.056	38.54963	
7.216	38.65836	
7.376	39.01844	
7.536	39.28493	
7.696	39.47567	
7.856	39.27780	
8.016	39.35267	
8.176	39.34643	
8.336	39.45517	
8.496	39.24750	
8.656	39.11113	
8.816	39.27424	
8.977	39.41952	
9.137	39.38208	
9.297	39.45161	
9.457	39.40882	
9.617	39.56747	
9.777	39.49171	
9.937	39.51310	
10.097	39.65838	
10.257	39.64947	
10.417	39.32683	
10.577	39.19759	
10.737	39.18155	
10.897	39.13431	
11.057	39.20294	
11.218	39.16729	
11.378	39.19402	
11.538	39.33574	
11.698	39.23859	
11.858	39.12539	
12.018	39.23591	
12.178	39.14768	
12.338	39.42130	
12.498	39.28761	
12.658	39.28939	
12.818	39.41774	
12.978	39.38476	
13.138	39.53895	
13.299	39.34643	
13.459	39.61828	
13.619	39.41328	
13.779	39.10490	
13.939	39.25998	
14.099	39.27959	
14.259	39.59956	
14.419	39.45784	
14.579	39.05766	
14.739	38.92842	
14.899	39.19670	
15.059	38.88475	
15.219	38.92218	
15.379	38.82681	
15.540	38.91773	
15.700	38.69847	
15.860	38.89544	
16.020	38.99081	
16.180	38.69580	
16.340	38.79205	
16.500	38.96318	
16.660	38.89188	
16.820	38.51932	
16.980	38.90168	
17.140	38.62717	
17.300	38.53536	
17.460	38.68688	
17.621	38.74927	
17.781	38.44000	
17.941	38.58706	
18.101	38.62538	
18.261	38.40256	
18.421	38.07635	
18.581	38.10042	
18.741	38.16637	
18.901	38.16816	
19.061	38.46406	
19.221	38.49615	
19.381	38.61112	
19.541	38.74214	
19.701	38.51754	
19.862	38.74303	
