[FILEINFO]
Version	2.0
Type	Profile
Date	2002-02-08 21:01:02

[DITEST]
Serial Number	13ST0246B	
Type	STA-R	

[MEASUREMENT]
Date	2002-02-08 19:08:15	
Measurement duration (s)	47.314	
File Name	L - 40_2002_02_08_19_08_16 620	
Sensor name	Erick 002	
Sensor ID	'200201050546332081614	
Sensor Length (m)	20.00	
Sample Count	125	
Spatial Resolution (m)	1.0	
Sampling Interval (ns)	4	
Gain contrast (%)	100.00	
Averaging	1000	
Pulse Rate (kHz)	8.5	
Frequency start (GHz)	10.5967	
Frequency stop (GHz)	10.9567	
Frequency step set (MHz)	2	
Frequency step actual (MHz)	2.0	
Nb of frequency peak	1	
Sensor configuration	Loop	
Frequency scan mode	Automatic	

[MAINTENANCEINFO]
Internal	ew0KICAiRURGQSBTdGF0dXMgRXJyb3IiOiAiTm8gRXJyb3IiLA0KICAiTGFzZXIgTGltaXQgQ3VycmVudCBNb25pdG9yIjogMC42OTMsDQogICJMYXNlciBDdXJyZW50IE1vbml0b3IiOiAwLjY5MywNCiAgIkxhc2VyIFBvd2VyIE1vbml0b3IiOiAwLjAwNSwNCiAgIkxhc2VyIFRlbXBlcmF0dXJlIE1vbml0b3IiOiAxLjU2NCwNCiAgIkxhc2VyIFNldCBQb2ludCBUZW1wZXJhdHVyZSBNb25pdG9yIjogMS41NjYsDQogICJQaG90byBEaW9kZSBWYWx1ZSI6IDAuNzk3LA0KICAiRU9NIEJpYXNpbmcgVmFsdWUgKGZpbmUpIjogMS41ODcsDQogICJFT00gQmlhc2luZyBWYWx1ZSAoZHJhZnQpIjogMC44MzYsDQogICJTeXN0ZW0gU3RhdHVzIjogIltMYXNlciBFbmFibGVkLCBFREZBIEVuYWJsZWQsIEVERkEgT24sIFN0YWJpbGl6YXRpb24gRW5hYmxlZCwgV2F0Y2hkb2cgRW5hYmxlZCwgS2V5IFR1cm4gT24sIE1lYXN1cmUgTW9kZV0iLA0KICAiQXR0ZW51YXRvciBQb3NpdGlvbiBWYWx1ZSI6IDEuOTUxLA0KICAiUHJvYmUgUG93ZXIgVmFsdWUiOiAyLjQwMiwNCiAgIkVPTSBQb3dlciBPdXRwdXQiOiAwLjA0NywNCiAgIlRoZXJtaXN0b3IgVmFsdWUiOiAyNi41LA0KICAiRmlybXdhcmUgVmVyc2lvbiI6ICJ2IDEzMDIyNi0wIiwNCiAgIkxhc2VyIFRlbXBlcmF0dXJlIjogMS4xODIsDQogICJJbnRlcm5hbCBGaWJlciBHYWluIjogMTMuNDk4MzUzMjc4MjgyOCwNCiAgIlBMTyBQb3dlciBBbXBsaXR1ZGUiOiAzLjksDQogICJBdXRvLUNhbGlicmF0aW9iIFBlcmZvcm0iOiAiTm9uZSIsDQogICJJbnRlcm5hbCBHYWluIFBlcmZvcm0iOiAiTWVhc3VyZW1lbnQgQ2hhbm5lbCINCn0=	

[DATADESCRIPTION]
Nb of measurements	1
Distance unit	m
Data type	Temperature
Data unit	°C
Measurement Mode	Absolute

[DATA]	
0.012	218.21919	
0.172	219.94294	
0.333	219.69070	
0.493	216.50436	
0.653	216.81185	
0.813	217.68531	
0.973	41.14505	
1.133	41.52830	
1.293	41.27963	
1.453	41.33845	
1.613	41.38391	
1.773	41.51225	
1.933	41.57197	
2.093	41.59425	
2.253	41.70566	
2.414	41.73418	
2.574	41.57464	
2.734	41.40174	
2.894	40.99442	
3.054	40.95164	
3.214	41.01314	
3.374	41.27517	
3.534	41.23863	
3.694	40.88568	
3.854	40.89370	
4.014	40.66019	
4.174	40.17176	
4.334	40.01133	
4.494	40.14324	
4.655	40.36339	
4.815	40.41330	
4.975	40.25198	
5.135	39.82773	
5.295	39.38476	
5.455	39.43645	
5.615	42.02920	
5.775	46.03641	
5.935	41.87055	
6.095	38.27511	
6.255	39.18511	
6.415	39.08618	
6.575	39.16372	
6.735	39.72523	
6.896	39.39724	
7.056	38.93199	
7.216	39.02824	
7.376	39.42130	
7.536	39.67532	
7.696	40.03272	
7.856	39.59778	
8.016	39.75732	
8.176	39.65036	
8.336	39.61471	
8.496	39.59599	
8.656	39.35535	
8.816	39.46230	
8.977	39.65571	
9.137	39.55410	
9.297	39.56658	
9.457	39.60669	
9.617	39.57193	
9.777	39.57638	
9.937	39.57638	
10.097	39.81168	
10.257	39.80901	
10.417	39.47389	
10.577	39.39367	
10.737	39.44091	
10.897	39.30900	
11.057	39.22611	
11.218	39.19313	
11.378	39.14055	
11.538	39.19492	
11.698	39.18778	
11.858	39.22611	
12.018	39.12361	
12.178	39.14500	
12.338	39.22254	
12.498	39.45963	
12.658	39.20294	
12.818	39.64680	
12.978	39.28583	
13.138	39.57995	
13.299	39.60045	
13.459	39.57995	
13.619	39.28137	
13.779	38.98457	
13.939	39.29385	
14.099	39.26176	
14.259	39.19937	
14.419	39.23859	
14.579	38.85801	
14.739	38.95516	
14.899	39.04340	
15.059	38.74036	
15.219	38.66549	
15.379	38.68599	
15.540	38.68777	
15.700	38.51665	
15.860	38.81166	
16.020	39.01042	
16.180	38.83305	
16.340	38.65301	
16.500	38.74838	
16.660	38.71095	
16.820	38.17350	
16.980	38.26887	
17.140	38.38385	
17.300	38.23589	
17.460	38.30720	
17.621	38.38296	
17.781	38.22520	
17.941	38.15300	
18.101	38.26531	
18.261	38.02644	
18.421	37.67884	
18.581	37.58704	
18.741	37.75638	
18.901	37.73143	
19.061	37.93018	
19.221	38.05942	
19.381	38.22698	
19.541	38.24926	
19.701	38.16103	
19.862	38.19489	
