[FILEINFO]
Version	2.0
Type	Profile
Date	2002-02-08 20:59:50

[DITEST]
Serial Number	13ST0246B	
Type	STA-R	

[MEASUREMENT]
Date	2002-02-08 19:48:38	
Measurement duration (s)	48.034	
File Name	L - 75_2002_02_08_19_48_39 556	
Sensor name	Erick 002	
Sensor ID	'200201050546332081614	
Sensor Length (m)	20.00	
Sample Count	125	
Spatial Resolution (m)	1.0	
Sampling Interval (ns)	4	
Gain contrast (%)	100.00	
Averaging	1000	
Pulse Rate (kHz)	8.5	
Frequency start (GHz)	10.5807	
Frequency stop (GHz)	10.9567	
Frequency step set (MHz)	2	
Frequency step actual (MHz)	2.0	
Nb of frequency peak	1	
Sensor configuration	Loop	
Frequency scan mode	Automatic	

[MAINTENANCEINFO]
Internal	ew0KICAiRURGQSBTdGF0dXMgRXJyb3IiOiAiTm8gRXJyb3IiLA0KICAiTGFzZXIgTGltaXQgQ3VycmVudCBNb25pdG9yIjogMC42OTMsDQogICJMYXNlciBDdXJyZW50IE1vbml0b3IiOiAwLjY5MywNCiAgIkxhc2VyIFBvd2VyIE1vbml0b3IiOiAwLjAwNSwNCiAgIkxhc2VyIFRlbXBlcmF0dXJlIE1vbml0b3IiOiAxLjU2NCwNCiAgIkxhc2VyIFNldCBQb2ludCBUZW1wZXJhdHVyZSBNb25pdG9yIjogMS41NjYsDQogICJQaG90byBEaW9kZSBWYWx1ZSI6IDAuNzkzLA0KICAiRU9NIEJpYXNpbmcgVmFsdWUgKGZpbmUpIjogMS41NywNCiAgIkVPTSBCaWFzaW5nIFZhbHVlIChkcmFmdCkiOiAwLjgzNiwNCiAgIlN5c3RlbSBTdGF0dXMiOiAiW0xhc2VyIEVuYWJsZWQsIEVERkEgRW5hYmxlZCwgRURGQSBPbiwgU3RhYmlsaXphdGlvbiBFbmFibGVkLCBXYXRjaGRvZyBFbmFibGVkLCBLZXkgVHVybiBPbiwgTWVhc3VyZSBNb2RlXSIsDQogICJBdHRlbnVhdG9yIFBvc2l0aW9uIFZhbHVlIjogMS45NTEsDQogICJQcm9iZSBQb3dlciBWYWx1ZSI6IDIuNDAxLA0KICAiRU9NIFBvd2VyIE91dHB1dCI6IDAuMDQ2LA0KICAiVGhlcm1pc3RvciBWYWx1ZSI6IDI2LjYsDQogICJGaXJtd2FyZSBWZXJzaW9uIjogInYgMTMwMjI2LTAiLA0KICAiTGFzZXIgVGVtcGVyYXR1cmUiOiAxLjE4MiwNCiAgIkludGVybmFsIEZpYmVyIEdhaW4iOiAxMy40MTIyNDI1NjgzNjU0LA0KICAiUExPIFBvd2VyIEFtcGxpdHVkZSI6IDMuOSwNCiAgIkF1dG8tQ2FsaWJyYXRpb2IgUGVyZm9ybSI6ICJOb25lIiwNCiAgIkludGVybmFsIEdhaW4gUGVyZm9ybSI6ICJNZWFzdXJlbWVudCBDaGFubmVsIg0KfQ==	

[DATADESCRIPTION]
Nb of measurements	1
Distance unit	m
Data type	Temperature
Data unit	°C
Measurement Mode	Absolute

[DATA]	
0.012	218.50351	
0.172	220.32441	
0.333	219.95007	
0.493	216.62736	
0.653	216.97674	
0.813	217.50438	
0.973	41.27874	
1.133	41.61030	
1.293	41.63614	
1.453	41.50602	
1.613	41.44095	
1.773	41.36430	
1.933	41.45521	
2.093	41.53008	
2.253	41.56930	
2.414	41.78321	
2.574	41.53097	
2.734	41.36252	
2.894	41.50869	
3.054	41.12455	
3.214	41.26537	
3.374	41.57375	
3.534	41.85986	
3.694	41.43560	
3.854	41.24220	
4.014	40.96590	
4.174	40.64325	
4.334	40.46232	
4.494	40.92044	
4.655	40.88568	
4.815	40.90529	
4.975	41.03542	
5.135	40.44539	
5.295	40.09422	
5.455	39.78316	
5.615	40.92935	
5.775	42.41958	
5.935	40.69673	
6.095	38.86514	
6.255	39.43378	
6.415	39.44982	
6.575	39.91329	
6.735	40.16374	
6.896	40.06659	
7.056	39.24394	
7.216	39.09777	
7.376	39.85090	
7.536	40.28228	
7.696	40.33487	
7.856	40.10313	
8.016	39.94805	
8.176	39.89368	
8.336	39.89814	
8.496	39.87764	
8.656	39.56391	
8.816	39.74038	
8.977	39.90438	
9.137	39.93914	
9.297	39.85268	
9.457	39.82416	
9.617	39.81614	
9.777	39.94805	
9.937	39.89279	
10.097	40.00242	
10.257	40.26357	
10.417	39.77068	
10.577	39.72879	
10.737	39.89725	
10.897	39.50152	
11.057	39.51043	
11.218	39.77871	
11.378	39.50508	
11.538	39.49795	
11.698	39.45874	
11.858	39.79653	
12.018	39.45606	
12.178	39.59599	
12.338	39.68869	
12.498	39.37763	
12.658	39.80544	
12.818	39.90883	
12.978	39.80723	
13.138	39.87051	
13.299	40.05144	
13.459	40.01757	
13.619	39.50776	
13.779	39.50776	
13.939	39.46052	
14.099	39.31167	
14.259	39.50419	
14.419	39.62541	
14.579	39.01042	
14.739	39.22076	
14.899	39.32415	
15.059	38.97120	
15.219	38.82325	
15.379	39.03627	
15.540	38.88386	
15.700	39.00596	
15.860	39.02824	
16.020	39.21631	
16.180	39.04607	
16.340	39.00596	
16.500	39.23324	
16.660	38.99081	
16.820	38.62093	
16.980	38.87584	
17.140	38.84910	
17.300	38.63341	
17.460	38.90614	
17.621	38.76977	
17.781	38.72966	
17.941	38.68332	
18.101	38.85266	
18.261	38.54160	
18.421	38.36156	
18.581	38.21896	
18.741	38.29383	
18.901	38.49704	
19.061	38.61647	
19.221	38.82949	
19.381	38.89544	
19.541	39.03003	
19.701	38.76977	
19.862	39.05053	
