[FILEINFO]
Version	2.0
Type	Profile
Date	2002-02-08 21:01:28

[DITEST]
Serial Number	13ST0246B	
Type	STA-R	

[MEASUREMENT]
Date	2002-02-08 18:52:57	
Measurement duration (s)	48.213	
File Name	L - 25_2002_02_08_18_52_58 599	
Sensor name	Erick 002	
Sensor ID	'200201050546332081614	
Sensor Length (m)	20.00	
Sample Count	125	
Spatial Resolution (m)	1.0	
Sampling Interval (ns)	4	
Gain contrast (%)	100.00	
Averaging	1000	
Pulse Rate (kHz)	8.5	
Frequency start (GHz)	10.5807	
Frequency stop (GHz)	10.9527	
Frequency step set (MHz)	2	
Frequency step actual (MHz)	2.0	
Nb of frequency peak	1	
Sensor configuration	Loop	
Frequency scan mode	Automatic	

[MAINTENANCEINFO]
Internal	ew0KICAiRURGQSBTdGF0dXMgRXJyb3IiOiAiTm8gRXJyb3IiLA0KICAiTGFzZXIgTGltaXQgQ3VycmVudCBNb25pdG9yIjogMC42OTMsDQogICJMYXNlciBDdXJyZW50IE1vbml0b3IiOiAwLjY5MywNCiAgIkxhc2VyIFBvd2VyIE1vbml0b3IiOiAwLjAwNSwNCiAgIkxhc2VyIFRlbXBlcmF0dXJlIE1vbml0b3IiOiAxLjU2NCwNCiAgIkxhc2VyIFNldCBQb2ludCBUZW1wZXJhdHVyZSBNb25pdG9yIjogMS41NjYsDQogICJQaG90byBEaW9kZSBWYWx1ZSI6IDAuODA3LA0KICAiRU9NIEJpYXNpbmcgVmFsdWUgKGZpbmUpIjogMS41NTksDQogICJFT00gQmlhc2luZyBWYWx1ZSAoZHJhZnQpIjogMC44MzYsDQogICJTeXN0ZW0gU3RhdHVzIjogIltMYXNlciBFbmFibGVkLCBFREZBIEVuYWJsZWQsIEVERkEgT24sIFN0YWJpbGl6YXRpb24gRW5hYmxlZCwgV2F0Y2hkb2cgRW5hYmxlZCwgS2V5IFR1cm4gT24sIE1lYXN1cmUgTW9kZV0iLA0KICAiQXR0ZW51YXRvciBQb3NpdGlvbiBWYWx1ZSI6IDEuOTUxLA0KICAiUHJvYmUgUG93ZXIgVmFsdWUiOiAyLjM2NywNCiAgIkVPTSBQb3dlciBPdXRwdXQiOiAwLjA0OCwNCiAgIlRoZXJtaXN0b3IgVmFsdWUiOiAyNS44NSwNCiAgIkZpcm13YXJlIFZlcnNpb24iOiAidiAxMzAyMjYtMCIsDQogICJMYXNlciBUZW1wZXJhdHVyZSI6IDEuMTgyLA0KICAiSW50ZXJuYWwgRmliZXIgR2FpbiI6IDEzLjQzMjkyNjYzMTIwOTksDQogICJQTE8gUG93ZXIgQW1wbGl0dWRlIjogMy45LA0KICAiQXV0by1DYWxpYnJhdGlvYiBQZXJmb3JtIjogIk5vbmUiLA0KICAiSW50ZXJuYWwgR2FpbiBQZXJmb3JtIjogIk1lYXN1cmVtZW50IENoYW5uZWwiDQp9	

[DATADESCRIPTION]
Nb of measurements	1
Distance unit	m
Data type	Temperature
Data unit	°C
Measurement Mode	Absolute

[DATA]	
0.012	217.63273	
0.172	218.54451	
0.333	218.63364	
0.493	215.29578	
0.653	216.12378	
0.813	216.79759	
0.973	40.57106	
1.133	40.92222	
1.293	40.97214	
1.453	40.95788	
1.613	41.01135	
1.773	40.91153	
1.933	40.83844	
2.093	40.92668	
2.253	41.08979	
2.414	41.29835	
2.574	41.07018	
2.734	40.76981	
2.894	40.71990	
3.054	40.41776	
3.214	40.40528	
3.374	40.89727	
3.534	40.85627	
3.694	40.69851	
3.854	40.39993	
4.014	39.97301	
4.174	39.46676	
4.334	39.50776	
4.494	39.68423	
4.655	39.86160	
4.815	39.81792	
4.975	39.83307	
5.135	39.31435	
5.295	38.86692	
5.455	39.22433	
5.615	43.38663	
5.775	48.90724	
5.935	42.45345	
6.095	37.74212	
6.255	38.76086	
6.415	38.41326	
6.575	38.75551	
6.735	38.89188	
6.896	38.74125	
7.056	38.01218	
7.216	38.13607	
7.376	38.35265	
7.536	39.16105	
7.696	39.33396	
7.856	39.10490	
8.016	39.07548	
8.176	38.95694	
8.336	39.16016	
8.496	38.81434	
8.656	38.69401	
8.816	38.72966	
8.977	39.18868	
9.137	39.10490	
9.297	38.90703	
9.457	39.12361	
9.617	39.06479	
9.777	39.06835	
9.937	39.04696	
10.097	39.27335	
10.257	39.46052	
10.417	38.88920	
10.577	38.82058	
10.737	38.97120	
10.897	38.84999	
11.057	38.79027	
11.218	38.63697	
11.378	38.86336	
11.538	38.77512	
11.698	38.66282	
11.858	39.01755	
12.018	38.68956	
12.178	38.69847	
12.338	38.96051	
12.498	38.92575	
12.658	38.91505	
12.818	39.12361	
12.978	39.14589	
13.138	39.15481	
13.299	39.10668	
13.459	39.27959	
13.619	38.80632	
13.779	38.42752	
13.939	38.94625	
14.099	38.91060	
14.259	39.01042	
14.419	38.85712	
14.579	38.66460	
14.739	38.60667	
14.899	38.46763	
15.059	38.45693	
15.219	38.33750	
15.379	38.28937	
15.540	38.40078	
15.700	38.33750	
15.860	38.40613	
16.020	38.51665	
16.180	38.52200	
16.340	38.29383	
16.500	38.31789	
16.660	38.29472	
16.820	38.17796	
16.980	38.15122	
17.140	38.31433	
17.300	38.07992	
17.460	38.18420	
17.621	38.44802	
17.781	38.22698	
17.941	38.01664	
18.101	38.34998	
18.261	38.06031	
18.421	37.78936	
18.581	37.83571	
18.741	37.64675	
18.901	37.75549	
19.061	38.11735	
19.221	38.22965	
19.381	38.34285	
19.541	38.21450	
19.701	38.28491	
19.862	38.03535	
