[FILEINFO]
Version	2.0
Type	Profile
Date	2002-02-08 21:00:23

[DITEST]
Serial Number	13ST0246B	
Type	STA-R	

[MEASUREMENT]
Date	2002-02-08 19:28:24	
Measurement duration (s)	47.539	
File Name	L - 60_2002_02_08_19_28_25 800	
Sensor name	Erick 002	
Sensor ID	'200201050546332081614	
Sensor Length (m)	20.00	
Sample Count	125	
Spatial Resolution (m)	1.0	
Sampling Interval (ns)	4	
Gain contrast (%)	100.00	
Averaging	1000	
Pulse Rate (kHz)	8.5	
Frequency start (GHz)	10.5807	
Frequency stop (GHz)	10.9527	
Frequency step set (MHz)	2	
Frequency step actual (MHz)	2.0	
Nb of frequency peak	1	
Sensor configuration	Loop	
Frequency scan mode	Automatic	

[MAINTENANCEINFO]
Internal	ew0KICAiRURGQSBTdGF0dXMgRXJyb3IiOiAiTm8gRXJyb3IiLA0KICAiTGFzZXIgTGltaXQgQ3VycmVudCBNb25pdG9yIjogMC42OTMsDQogICJMYXNlciBDdXJyZW50IE1vbml0b3IiOiAwLjY5MywNCiAgIkxhc2VyIFBvd2VyIE1vbml0b3IiOiAwLjAwNCwNCiAgIkxhc2VyIFRlbXBlcmF0dXJlIE1vbml0b3IiOiAxLjU2NCwNCiAgIkxhc2VyIFNldCBQb2ludCBUZW1wZXJhdHVyZSBNb25pdG9yIjogMS41NjYsDQogICJQaG90byBEaW9kZSBWYWx1ZSI6IDAuNzk0LA0KICAiRU9NIEJpYXNpbmcgVmFsdWUgKGZpbmUpIjogMS41NjIsDQogICJFT00gQmlhc2luZyBWYWx1ZSAoZHJhZnQpIjogMC44MzYsDQogICJTeXN0ZW0gU3RhdHVzIjogIltMYXNlciBFbmFibGVkLCBFREZBIEVuYWJsZWQsIEVERkEgT24sIFN0YWJpbGl6YXRpb24gRW5hYmxlZCwgV2F0Y2hkb2cgRW5hYmxlZCwgS2V5IFR1cm4gT24sIE1lYXN1cmUgTW9kZV0iLA0KICAiQXR0ZW51YXRvciBQb3NpdGlvbiBWYWx1ZSI6IDEuOTUxLA0KICAiUHJvYmUgUG93ZXIgVmFsdWUiOiAyLjM4NiwNCiAgIkVPTSBQb3dlciBPdXRwdXQiOiAwLjA0NiwNCiAgIlRoZXJtaXN0b3IgVmFsdWUiOiAyNi41NywNCiAgIkZpcm13YXJlIFZlcnNpb24iOiAidiAxMzAyMjYtMCIsDQogICJMYXNlciBUZW1wZXJhdHVyZSI6IDEuMTgyLA0KICAiSW50ZXJuYWwgRmliZXIgR2FpbiI6IDEzLjY2MDI2OTI0NjI0MywNCiAgIlBMTyBQb3dlciBBbXBsaXR1ZGUiOiAzLjksDQogICJBdXRvLUNhbGlicmF0aW9iIFBlcmZvcm0iOiAiTm9uZSIsDQogICJJbnRlcm5hbCBHYWluIFBlcmZvcm0iOiAiTWVhc3VyZW1lbnQgQ2hhbm5lbCINCn0=	

[DATADESCRIPTION]
Nb of measurements	1
Distance unit	m
Data type	Temperature
Data unit	°C
Measurement Mode	Absolute

[DATA]	
0.012	217.63451	
0.172	219.29408	
0.333	218.78872	
0.493	215.91790	
0.653	216.27352	
0.813	216.94020	
0.973	40.77605	
1.133	41.05681	
1.293	40.73862	
1.453	40.87588	
1.613	40.72258	
1.773	40.81616	
1.933	40.80190	
2.093	40.77427	
2.253	40.99531	
2.414	40.68425	
2.574	40.50243	
2.734	40.25287	
2.894	40.03183	
3.054	39.90883	
3.214	40.13611	
3.374	40.15661	
3.534	40.26178	
3.694	40.11829	
3.854	40.07729	
4.014	39.76445	
4.174	39.60223	
4.334	39.20472	
4.494	39.41952	
4.655	39.59065	
4.815	39.35802	
4.975	39.38476	
5.135	38.99883	
5.295	38.51397	
5.455	38.69847	
5.615	40.31882	
5.775	43.04348	
5.935	40.22791	
6.095	37.91770	
6.255	38.70203	
6.415	38.42663	
6.575	38.82860	
6.735	39.11916	
6.896	38.87227	
7.056	38.39009	
7.216	38.50060	
7.376	38.82592	
7.536	39.18065	
7.696	39.38119	
7.856	39.12361	
8.016	39.35446	
8.176	39.14500	
8.336	39.20294	
8.496	38.96229	
8.656	38.81255	
8.816	38.84375	
8.977	39.07816	
9.137	39.03448	
9.297	39.04518	
9.457	39.12005	
9.617	39.25909	
9.777	39.01844	
9.937	39.05231	
10.097	39.36248	
10.257	39.47210	
10.417	39.05320	
10.577	39.00062	
10.737	38.93912	
10.897	38.77601	
11.057	38.80275	
11.218	38.98635	
11.378	38.94357	
11.538	38.79829	
11.698	38.92931	
11.858	38.95783	
12.018	38.81790	
12.178	38.96764	
12.338	38.86425	
12.498	38.95872	
12.658	39.18511	
12.818	39.24928	
12.978	39.02379	
13.138	39.24126	
13.299	39.22878	
13.459	39.13342	
13.619	38.98279	
13.779	38.84464	
13.939	38.87762	
14.099	39.07994	
14.259	39.17085	
14.419	39.08172	
14.579	38.76175	
14.739	38.70827	
14.899	38.60132	
15.059	38.52289	
15.219	38.48634	
15.379	38.56299	
15.540	38.49258	
15.700	38.56210	
15.860	38.55319	
16.020	38.87316	
16.180	38.63519	
16.340	38.52200	
16.500	38.69936	
16.660	38.50863	
16.820	38.30363	
16.980	38.36691	
17.140	38.55765	
17.300	38.20470	
17.460	38.41148	
17.621	38.49704	
17.781	38.33037	
17.941	38.36602	
18.101	38.30630	
18.261	38.23857	
18.421	37.72519	
18.581	37.98812	
18.741	37.93999	
18.901	37.93464	
19.061	38.38474	
19.221	38.37761	
19.381	38.52200	
19.541	38.34998	
19.701	38.29383	
19.862	38.45515	
