[FILEINFO]
Version	2.0
Type	Profile
Date	2002-02-08 21:02:13

[DITEST]
Serial Number	13ST0246B	
Type	STA-R	

[MEASUREMENT]
Date	2002-02-08 18:37:56	
Measurement duration (s)	48.846	
File Name	L - 10_2002_02_08_18_37_57 105	
Sensor name	Erick 002	
Sensor ID	'200201050546332081614	
Sensor Length (m)	20.00	
Sample Count	125	
Spatial Resolution (m)	1.0	
Sampling Interval (ns)	4	
Gain contrast (%)	100.00	
Averaging	1000	
Pulse Rate (kHz)	8.5	
Frequency start (GHz)	10.5807	
Frequency stop (GHz)	10.9507	
Frequency step set (MHz)	2	
Frequency step actual (MHz)	2.0	
Nb of frequency peak	1	
Sensor configuration	Loop	
Frequency scan mode	Automatic	

[MAINTENANCEINFO]
Internal	ew0KICAiRURGQSBTdGF0dXMgRXJyb3IiOiAiTm8gRXJyb3IiLA0KICAiTGFzZXIgTGltaXQgQ3VycmVudCBNb25pdG9yIjogMC42OTMsDQogICJMYXNlciBDdXJyZW50IE1vbml0b3IiOiAwLjY5MywNCiAgIkxhc2VyIFBvd2VyIE1vbml0b3IiOiAwLjAwNSwNCiAgIkxhc2VyIFRlbXBlcmF0dXJlIE1vbml0b3IiOiAxLjU2NCwNCiAgIkxhc2VyIFNldCBQb2ludCBUZW1wZXJhdHVyZSBNb25pdG9yIjogMS41NjYsDQogICJQaG90byBEaW9kZSBWYWx1ZSI6IDAuODA5LA0KICAiRU9NIEJpYXNpbmcgVmFsdWUgKGZpbmUpIjogMS41NzcsDQogICJFT00gQmlhc2luZyBWYWx1ZSAoZHJhZnQpIjogMC44MzYsDQogICJTeXN0ZW0gU3RhdHVzIjogIltMYXNlciBFbmFibGVkLCBFREZBIEVuYWJsZWQsIEVERkEgT24sIFN0YWJpbGl6YXRpb24gRW5hYmxlZCwgV2F0Y2hkb2cgRW5hYmxlZCwgS2V5IFR1cm4gT24sIE1lYXN1cmUgTW9kZV0iLA0KICAiQXR0ZW51YXRvciBQb3NpdGlvbiBWYWx1ZSI6IDEuOTUxLA0KICAiUHJvYmUgUG93ZXIgVmFsdWUiOiAyLjM3MiwNCiAgIkVPTSBQb3dlciBPdXRwdXQiOiAwLjA0OCwNCiAgIlRoZXJtaXN0b3IgVmFsdWUiOiAyNS43MywNCiAgIkZpcm13YXJlIFZlcnNpb24iOiAidiAxMzAyMjYtMCIsDQogICJMYXNlciBUZW1wZXJhdHVyZSI6IDEuMTgyLA0KICAiSW50ZXJuYWwgRmliZXIgR2FpbiI6IDEzLjQ2ODk4MTgxODM5NzQsDQogICJQTE8gUG93ZXIgQW1wbGl0dWRlIjogMy45LA0KICAiQXV0by1DYWxpYnJhdGlvYiBQZXJmb3JtIjogIk5vbmUiLA0KICAiSW50ZXJuYWwgR2FpbiBQZXJmb3JtIjogIk1lYXN1cmVtZW50IENoYW5uZWwiDQp9	

[DATADESCRIPTION]
Nb of measurements	1
Distance unit	m
Data type	Temperature
Data unit	°C
Measurement Mode	Absolute

[DATA]	
0.012	217.90368	
0.172	218.68177	
0.333	218.45360	
0.493	215.54980	
0.653	216.02574	
0.813	216.77977	
0.973	40.23594	
1.133	40.58799	
1.293	40.44628	
1.453	40.47123	
1.613	40.71901	
1.773	40.47836	
1.933	40.57641	
2.093	40.56660	
2.253	40.78318	
2.414	40.86251	
2.574	40.65217	
2.734	40.71188	
2.894	40.17889	
3.054	40.05500	
3.214	40.12898	
3.374	40.48639	
3.534	40.55412	
3.694	40.25198	
3.854	40.34289	
4.014	39.73592	
4.174	39.18511	
4.334	39.17174	
4.494	39.09509	
4.655	39.31256	
4.815	39.35446	
4.975	39.26800	
5.135	38.90881	
5.295	38.38385	
5.455	38.86692	
5.615	44.64512	
5.775	52.94387	
5.935	44.29395	
6.095	37.36689	
6.255	38.41772	
6.415	38.07814	
6.575	38.14587	
6.735	38.57458	
6.896	38.08616	
7.056	37.53445	
7.216	37.72340	
7.376	38.08437	
7.536	38.42752	
7.696	38.88118	
7.856	38.77066	
8.016	38.54963	
8.176	38.61380	
8.336	38.76086	
8.496	38.52556	
8.656	38.11290	
8.816	38.47030	
8.977	38.74036	
9.137	38.59241	
9.297	38.49169	
9.457	38.78671	
9.617	38.50684	
9.777	38.58082	
9.937	38.68332	
10.097	38.77334	
10.257	38.85177	
10.417	38.74571	
10.577	38.46852	
10.737	38.55676	
10.897	38.54339	
11.057	38.40613	
11.218	38.29650	
11.378	38.54606	
11.538	38.32413	
11.698	38.08527	
11.858	38.49971	
12.018	38.21094	
12.178	38.16103	
12.338	38.45961	
12.498	38.28135	
12.658	38.43911	
12.818	38.54873	
12.978	38.66995	
13.138	38.54606	
13.299	38.77512	
13.459	38.73501	
13.619	38.40969	
13.779	38.09061	
13.939	38.37315	
14.099	38.51487	
14.259	38.40880	
14.419	38.47832	
14.579	38.16548	
14.739	38.10487	
14.899	38.06922	
15.059	38.03981	
15.219	37.78134	
15.379	37.81342	
15.540	38.07368	
15.700	37.93910	
15.860	37.88829	
16.020	38.29739	
16.180	38.13607	
16.340	37.90612	
16.500	38.11022	
16.660	38.18955	
16.820	37.63962	
16.980	37.92394	
17.140	37.98009	
17.300	37.76975	
17.460	37.83927	
17.621	38.26085	
17.781	37.81966	
17.941	37.67349	
18.101	38.00594	
18.261	37.69934	
18.421	37.23676	
18.581	37.42037	
18.741	37.48900	
18.901	37.28489	
19.061	37.92929	
19.221	37.94088	
19.381	37.73767	
19.541	38.25372	
19.701	38.00505	
19.862	37.76262	
