[FILEINFO]
Version	2.0
Type	Profile
Date	2002-02-08 21:01:20

[DITEST]
Serial Number	13ST0246B	
Type	STA-R	

[MEASUREMENT]
Date	2002-02-08 18:58:09	
Measurement duration (s)	48.114	
File Name	L - 30_2002_02_08_18_58_10 899	
Sensor name	Erick 002	
Sensor ID	'200201050546332081614	
Sensor Length (m)	20.00	
Sample Count	125	
Spatial Resolution (m)	1.0	
Sampling Interval (ns)	4	
Gain contrast (%)	100.00	
Averaging	1000	
Pulse Rate (kHz)	8.5	
Frequency start (GHz)	10.5807	
Frequency stop (GHz)	10.9567	
Frequency step set (MHz)	2	
Frequency step actual (MHz)	2.0	
Nb of frequency peak	1	
Sensor configuration	Loop	
Frequency scan mode	Automatic	

[MAINTENANCEINFO]
Internal	ew0KICAiRURGQSBTdGF0dXMgRXJyb3IiOiAiTm8gRXJyb3IiLA0KICAiTGFzZXIgTGltaXQgQ3VycmVudCBNb25pdG9yIjogMC42OTMsDQogICJMYXNlciBDdXJyZW50IE1vbml0b3IiOiAwLjY5MywNCiAgIkxhc2VyIFBvd2VyIE1vbml0b3IiOiAwLjAwNSwNCiAgIkxhc2VyIFRlbXBlcmF0dXJlIE1vbml0b3IiOiAxLjU2NCwNCiAgIkxhc2VyIFNldCBQb2ludCBUZW1wZXJhdHVyZSBNb25pdG9yIjogMS41NjYsDQogICJQaG90byBEaW9kZSBWYWx1ZSI6IDAuODEyLA0KICAiRU9NIEJpYXNpbmcgVmFsdWUgKGZpbmUpIjogMS41NjgsDQogICJFT00gQmlhc2luZyBWYWx1ZSAoZHJhZnQpIjogMC44MzYsDQogICJTeXN0ZW0gU3RhdHVzIjogIltMYXNlciBFbmFibGVkLCBFREZBIEVuYWJsZWQsIEVERkEgT24sIFN0YWJpbGl6YXRpb24gRW5hYmxlZCwgV2F0Y2hkb2cgRW5hYmxlZCwgS2V5IFR1cm4gT24sIE1lYXN1cmUgTW9kZV0iLA0KICAiQXR0ZW51YXRvciBQb3NpdGlvbiBWYWx1ZSI6IDEuOTUxLA0KICAiUHJvYmUgUG93ZXIgVmFsdWUiOiAyLjM0NCwNCiAgIkVPTSBQb3dlciBPdXRwdXQiOiAwLjA0NywNCiAgIlRoZXJtaXN0b3IgVmFsdWUiOiAyNi4xLA0KICAiRmlybXdhcmUgVmVyc2lvbiI6ICJ2IDEzMDIyNi0wIiwNCiAgIkxhc2VyIFRlbXBlcmF0dXJlIjogMS4xODIsDQogICJJbnRlcm5hbCBGaWJlciBHYWluIjogMTMuMzc5OTgzNjI4MTUwMywNCiAgIlBMTyBQb3dlciBBbXBsaXR1ZGUiOiAzLjksDQogICJBdXRvLUNhbGlicmF0aW9iIFBlcmZvcm0iOiAiTm9uZSIsDQogICJJbnRlcm5hbCBHYWluIFBlcmZvcm0iOiAiTWVhc3VyZW1lbnQgQ2hhbm5lbCINCn0=	

[DATADESCRIPTION]
Nb of measurements	1
Distance unit	m
Data type	Temperature
Data unit	°C
Measurement Mode	Absolute

[DATA]	
0.012	217.99370	
0.172	218.49460	
0.333	218.37784	
0.493	215.33589	
0.653	215.99633	
0.813	217.24680	
0.973	40.45965	
1.133	40.91688	
1.293	41.03631	
1.453	40.97392	
1.613	41.19585	
1.773	41.26537	
1.933	41.29478	
2.093	41.25824	
2.253	41.37321	
2.414	41.28587	
2.574	41.02116	
2.734	40.75466	
2.894	40.44271	
3.054	40.49619	
3.214	40.22167	
3.374	40.77071	
3.534	40.88123	
3.694	40.36161	
3.854	40.54967	
4.014	39.95251	
4.174	39.54252	
4.334	39.68067	
4.494	39.68067	
4.655	40.01579	
4.815	40.06748	
4.975	39.85268	
5.135	39.50686	
5.295	39.03359	
5.455	39.13431	
5.615	42.73777	
5.775	47.75392	
5.935	42.20122	
6.095	37.69934	
6.255	38.83662	
6.415	38.47654	
6.575	38.65301	
6.735	39.34376	
6.896	38.73145	
7.056	38.15479	
7.216	38.29561	
7.376	38.57102	
7.536	39.07727	
7.696	39.48458	
7.856	39.20115	
8.016	39.00596	
8.176	39.14946	
8.336	39.25641	
8.496	38.94357	
8.656	38.90079	
8.816	39.00596	
8.977	39.29920	
9.137	39.14768	
9.297	39.27335	
9.457	39.23146	
9.617	39.19581	
9.777	39.06211	
9.937	39.23681	
10.097	39.29028	
10.257	39.39456	
10.417	39.09242	
10.577	38.98101	
10.737	38.97031	
10.897	38.84375	
11.057	38.83484	
11.218	38.75195	
11.378	38.89812	
11.538	38.81523	
11.698	38.78047	
11.858	39.09153	
12.018	38.77423	
12.178	38.89010	
12.338	39.01042	
12.498	38.93288	
12.658	38.95872	
12.818	39.39278	
12.978	39.19135	
13.138	39.05677	
13.299	39.24215	
13.459	39.19492	
13.619	38.97744	
13.779	38.57904	
13.939	38.71362	
14.099	38.85979	
14.259	38.85979	
14.419	38.93199	
14.579	38.56389	
14.739	38.43554	
14.899	38.43554	
15.059	38.50239	
15.219	38.45426	
15.379	38.18331	
15.540	38.32770	
15.700	38.19935	
15.860	38.51041	
16.020	38.66638	
16.180	38.40702	
16.340	38.22074	
16.500	38.34463	
16.660	38.29650	
16.820	38.06031	
16.980	38.08616	
17.140	38.25639	
17.300	37.86690	
17.460	37.96049	
17.621	38.27422	
17.781	37.93286	
17.941	37.80451	
18.101	38.07546	
18.261	37.67082	
18.421	37.48989	
18.581	37.51217	
18.741	37.38917	
18.901	37.34104	
19.061	37.85710	
19.221	37.66280	
19.381	37.95959	
19.541	38.07814	
19.701	37.94979	
19.862	38.03714	
