[FILEINFO]
Version	2.0
Type	Profile
Date	2002-02-08 20:59:29

[DITEST]
Serial Number	13ST0246B	
Type	STA-R	

[MEASUREMENT]
Date	2002-02-08 19:58:43	
Measurement duration (s)	46.502	
File Name	L - 85_2002_02_08_19_58_44 073	
Sensor name	Erick 002	
Sensor ID	'200201050546332081614	
Sensor Length (m)	20.00	
Sample Count	125	
Spatial Resolution (m)	1.0	
Sampling Interval (ns)	4	
Gain contrast (%)	100.00	
Averaging	1000	
Pulse Rate (kHz)	8.5	
Frequency start (GHz)	10.5807	
Frequency stop (GHz)	10.9567	
Frequency step set (MHz)	2	
Frequency step actual (MHz)	2.0	
Nb of frequency peak	1	
Sensor configuration	Loop	
Frequency scan mode	Automatic	

[MAINTENANCEINFO]
Internal	ew0KICAiRURGQSBTdGF0dXMgRXJyb3IiOiAiTm8gRXJyb3IiLA0KICAiTGFzZXIgTGltaXQgQ3VycmVudCBNb25pdG9yIjogMC42OTMsDQogICJMYXNlciBDdXJyZW50IE1vbml0b3IiOiAwLjY5MywNCiAgIkxhc2VyIFBvd2VyIE1vbml0b3IiOiAwLjAwNCwNCiAgIkxhc2VyIFRlbXBlcmF0dXJlIE1vbml0b3IiOiAxLjU2NCwNCiAgIkxhc2VyIFNldCBQb2ludCBUZW1wZXJhdHVyZSBNb25pdG9yIjogMS41NjYsDQogICJQaG90byBEaW9kZSBWYWx1ZSI6IDAuNzkyLA0KICAiRU9NIEJpYXNpbmcgVmFsdWUgKGZpbmUpIjogMS41MjUsDQogICJFT00gQmlhc2luZyBWYWx1ZSAoZHJhZnQpIjogMC44MzYsDQogICJTeXN0ZW0gU3RhdHVzIjogIltMYXNlciBFbmFibGVkLCBFREZBIEVuYWJsZWQsIEVERkEgT24sIFN0YWJpbGl6YXRpb24gRW5hYmxlZCwgV2F0Y2hkb2cgRW5hYmxlZCwgS2V5IFR1cm4gT24sIE1lYXN1cmUgTW9kZV0iLA0KICAiQXR0ZW51YXRvciBQb3NpdGlvbiBWYWx1ZSI6IDEuOTUxLA0KICAiUHJvYmUgUG93ZXIgVmFsdWUiOiAyLjM4OCwNCiAgIkVPTSBQb3dlciBPdXRwdXQiOiAwLjA0NywNCiAgIlRoZXJtaXN0b3IgVmFsdWUiOiAyNi45MiwNCiAgIkZpcm13YXJlIFZlcnNpb24iOiAidiAxMzAyMjYtMCIsDQogICJMYXNlciBUZW1wZXJhdHVyZSI6IDEuMTgyLA0KICAiSW50ZXJuYWwgRmliZXIgR2FpbiI6IDEzLjU0ODQwMjE0NDE3NzEsDQogICJQTE8gUG93ZXIgQW1wbGl0dWRlIjogMy45LA0KICAiQXV0by1DYWxpYnJhdGlvYiBQZXJmb3JtIjogIk5vbmUiLA0KICAiSW50ZXJuYWwgR2FpbiBQZXJmb3JtIjogIk1lYXN1cmVtZW50IENoYW5uZWwiDQp9	

[DATADESCRIPTION]
Nb of measurements	1
Distance unit	m
Data type	Temperature
Data unit	°C
Measurement Mode	Absolute

[DATA]	
0.012	219.44738	
0.172	220.31104	
0.333	220.03652	
0.493	216.93663	
0.653	217.32345	
0.813	218.41528	
0.973	41.35182	
1.133	41.82777	
1.293	41.92135	
1.453	41.96235	
1.613	41.96324	
1.773	41.96503	
1.933	42.26361	
2.093	42.21280	
2.253	42.46147	
2.414	42.41513	
2.574	42.15398	
2.734	41.92848	
2.894	41.68784	
3.054	41.80549	
3.214	41.59247	
3.374	41.95968	
3.534	42.31976	
3.694	41.82599	
3.854	41.80905	
4.014	41.54434	
4.174	41.22348	
4.334	41.11563	
4.494	41.17268	
4.655	41.42937	
4.815	41.33935	
4.975	41.18159	
5.135	40.84468	
5.295	40.26357	
5.455	39.94359	
5.615	41.01670	
5.775	42.21993	
5.935	40.78497	
6.095	39.21185	
6.255	39.56480	
6.415	39.72166	
6.575	40.15394	
6.735	40.53006	
6.896	40.32150	
7.056	39.54073	
7.216	39.68156	
7.376	40.06837	
7.536	40.58888	
7.696	40.70029	
7.856	40.26891	
8.016	40.12007	
8.176	40.34200	
8.336	40.34378	
8.496	40.05857	
8.656	39.84199	
8.816	40.02114	
8.977	40.07461	
9.137	40.14948	
9.297	40.18157	
9.457	40.10937	
9.617	40.29922	
9.777	40.09600	
9.937	40.16374	
10.097	40.40350	
10.257	40.65573	
10.417	40.01490	
10.577	39.87229	
10.737	40.05233	
10.897	39.77603	
11.057	39.70206	
11.218	39.82684	
11.378	39.68334	
11.538	39.62095	
11.698	39.85268	
11.858	39.93557	
12.018	39.66195	
12.178	39.87318	
12.338	39.95964	
12.498	39.73860	
12.658	40.14324	
12.818	40.23594	
12.978	39.91953	
13.138	40.08887	
13.299	40.34556	
13.459	40.04787	
13.619	39.97479	
13.779	39.69582	
13.939	39.98014	
14.099	39.57549	
14.259	39.84466	
14.419	39.96142	
14.579	39.39189	
14.739	39.41150	
14.899	39.59867	
15.059	39.30900	
15.219	39.28137	
15.379	39.36426	
15.540	39.18422	
15.700	39.14144	
15.860	39.32593	
16.020	39.43200	
16.180	39.20115	
16.340	39.25909	
16.500	39.51934	
16.660	39.02022	
16.820	39.14946	
16.980	38.89723	
17.140	38.94803	
17.300	38.86425	
17.460	38.98635	
17.621	39.15302	
17.781	38.88920	
17.941	38.72610	
18.101	38.86603	
18.261	38.92218	
18.421	38.49437	
18.581	38.52913	
18.741	38.54873	
18.901	38.47921	
19.061	38.85177	
19.221	38.90257	
19.381	39.31791	
19.541	39.13787	
19.701	39.22076	
19.862	39.38922	
