[FILEINFO]
Version	2.0
Type	Profile
Date	2002-02-08 21:00:52

[DITEST]
Serial Number	13ST0246B	
Type	STA-R	

[MEASUREMENT]
Date	2002-02-08 19:13:06	
Measurement duration (s)	47.849	
File Name	L - 45_2002_02_08_19_13_06 986	
Sensor name	Erick 002	
Sensor ID	'200201050546332081614	
Sensor Length (m)	20.00	
Sample Count	125	
Spatial Resolution (m)	1.0	
Sampling Interval (ns)	4	
Gain contrast (%)	100.00	
Averaging	1000	
Pulse Rate (kHz)	8.5	
Frequency start (GHz)	10.5807	
Frequency stop (GHz)	10.9567	
Frequency step set (MHz)	2	
Frequency step actual (MHz)	2.0	
Nb of frequency peak	1	
Sensor configuration	Loop	
Frequency scan mode	Automatic	

[MAINTENANCEINFO]
Internal	ew0KICAiRURGQSBTdGF0dXMgRXJyb3IiOiAiTm8gRXJyb3IiLA0KICAiTGFzZXIgTGltaXQgQ3VycmVudCBNb25pdG9yIjogMC42OTMsDQogICJMYXNlciBDdXJyZW50IE1vbml0b3IiOiAwLjY5MywNCiAgIkxhc2VyIFBvd2VyIE1vbml0b3IiOiAwLjAwNSwNCiAgIkxhc2VyIFRlbXBlcmF0dXJlIE1vbml0b3IiOiAxLjU2NCwNCiAgIkxhc2VyIFNldCBQb2ludCBUZW1wZXJhdHVyZSBNb25pdG9yIjogMS41NjYsDQogICJQaG90byBEaW9kZSBWYWx1ZSI6IDAuNzk4LA0KICAiRU9NIEJpYXNpbmcgVmFsdWUgKGZpbmUpIjogMS41NDMsDQogICJFT00gQmlhc2luZyBWYWx1ZSAoZHJhZnQpIjogMC44MzYsDQogICJTeXN0ZW0gU3RhdHVzIjogIltMYXNlciBFbmFibGVkLCBFREZBIEVuYWJsZWQsIEVERkEgT24sIFN0YWJpbGl6YXRpb24gRW5hYmxlZCwgV2F0Y2hkb2cgRW5hYmxlZCwgS2V5IFR1cm4gT24sIE1lYXN1cmUgTW9kZV0iLA0KICAiQXR0ZW51YXRvciBQb3NpdGlvbiBWYWx1ZSI6IDEuOTUxLA0KICAiUHJvYmUgUG93ZXIgVmFsdWUiOiAyLjM4OCwNCiAgIkVPTSBQb3dlciBPdXRwdXQiOiAwLjA0NywNCiAgIlRoZXJtaXN0b3IgVmFsdWUiOiAyNi43MywNCiAgIkZpcm13YXJlIFZlcnNpb24iOiAidiAxMzAyMjYtMCIsDQogICJMYXNlciBUZW1wZXJhdHVyZSI6IDEuMTgyLA0KICAiSW50ZXJuYWwgRmliZXIgR2FpbiI6IDEzLjY0MzQ1MzA2OTI1MjUsDQogICJQTE8gUG93ZXIgQW1wbGl0dWRlIjogMy45LA0KICAiQXV0by1DYWxpYnJhdGlvYiBQZXJmb3JtIjogIk5vbmUiLA0KICAiSW50ZXJuYWwgR2FpbiBQZXJmb3JtIjogIk1lYXN1cmVtZW50IENoYW5uZWwiDQp9	

[DATADESCRIPTION]
Nb of measurements	1
Distance unit	m
Data type	Temperature
Data unit	°C
Measurement Mode	Absolute

[DATA]	
0.012	217.98568	
0.172	219.74329	
0.333	219.22634	
0.493	216.01148	
0.653	216.85731	
0.813	217.40278	
0.973	41.10316	
1.133	41.48017	
1.293	41.58712	
1.453	41.63347	
1.613	41.87322	
1.773	41.86788	
1.933	41.90798	
2.093	42.06307	
2.253	41.91957	
2.414	41.97661	
2.574	41.64416	
2.734	41.51493	
2.894	41.24398	
3.054	41.27874	
3.214	41.38480	
3.374	41.62634	
3.534	41.56573	
3.694	41.32954	
3.854	41.37767	
4.014	40.90529	
4.174	40.52649	
4.334	40.35626	
4.494	40.48193	
4.655	40.72258	
4.815	40.74129	
4.975	40.64414	
5.135	40.28763	
5.295	39.66195	
5.455	39.68423	
5.615	42.11565	
5.775	45.88133	
5.935	41.81707	
6.095	38.44445	
6.255	39.23859	
6.415	39.16105	
6.575	39.39813	
6.735	39.85090	
6.896	39.55589	
7.056	38.64054	
7.216	38.89812	
7.376	39.20026	
7.536	39.69760	
7.696	39.84823	
7.856	39.69849	
8.016	39.80455	
8.176	39.60580	
8.336	39.53271	
8.496	39.48191	
8.656	39.20561	
8.816	39.38387	
8.977	39.70384	
9.137	39.75732	
9.297	39.54252	
9.457	39.75108	
9.617	39.75642	
9.777	39.58084	
9.937	39.51399	
10.097	39.62273	
10.257	39.98192	
10.417	39.49973	
10.577	39.35000	
10.737	39.30633	
10.897	39.06211	
11.057	39.23057	
11.218	39.13876	
11.378	39.14144	
11.538	39.17085	
11.698	39.12450	
11.858	39.31078	
12.018	39.09331	
12.178	39.26622	
12.338	39.28404	
12.498	39.22611	
12.658	39.23681	
12.818	39.50865	
12.978	39.36693	
13.138	39.36782	
13.299	39.48102	
13.459	39.55678	
13.619	39.21096	
13.779	38.98279	
13.939	39.15481	
14.099	39.00953	
14.259	39.16372	
14.419	39.08440	
14.579	38.80810	
14.739	38.71808	
14.899	38.88475	
15.059	38.62182	
15.219	38.70738	
15.379	38.54784	
15.540	38.65301	
15.700	38.58171	
15.860	38.68154	
16.020	38.93733	
16.180	38.66371	
16.340	38.52467	
16.500	38.83751	
16.660	38.63697	
16.820	38.39811	
16.980	38.39187	
17.140	38.50239	
17.300	38.33750	
17.460	38.27957	
17.621	38.57458	
17.781	38.48902	
17.941	38.32859	
18.101	38.33572	
18.261	38.31433	
18.421	37.88473	
18.581	37.91147	
18.741	37.68241	
18.901	37.92751	
19.061	38.15211	
19.221	38.36691	
19.381	38.34017	
19.541	38.56121	
19.701	38.60043	
19.862	38.49258	
