[FILEINFO]
Version	2.0
Type	Profile
Date	2002-02-08 21:00:33

[DITEST]
Serial Number	13ST0246B	
Type	STA-R	

[MEASUREMENT]
Date	2002-02-08 19:23:14	
Measurement duration (s)	46.969	
File Name	L - 55_2002_02_08_19_23_15 592	
Sensor name	Erick 002	
Sensor ID	'200201050546332081614	
Sensor Length (m)	20.00	
Sample Count	125	
Spatial Resolution (m)	1.0	
Sampling Interval (ns)	4	
Gain contrast (%)	100.00	
Averaging	1000	
Pulse Rate (kHz)	8.5	
Frequency start (GHz)	10.5807	
Frequency stop (GHz)	10.9527	
Frequency step set (MHz)	2	
Frequency step actual (MHz)	2.0	
Nb of frequency peak	1	
Sensor configuration	Loop	
Frequency scan mode	Automatic	

[MAINTENANCEINFO]
Internal	ew0KICAiRURGQSBTdGF0dXMgRXJyb3IiOiAiTm8gRXJyb3IiLA0KICAiTGFzZXIgTGltaXQgQ3VycmVudCBNb25pdG9yIjogMC42OTMsDQogICJMYXNlciBDdXJyZW50IE1vbml0b3IiOiAwLjY5MywNCiAgIkxhc2VyIFBvd2VyIE1vbml0b3IiOiAwLjAwNiwNCiAgIkxhc2VyIFRlbXBlcmF0dXJlIE1vbml0b3IiOiAxLjU2NCwNCiAgIkxhc2VyIFNldCBQb2ludCBUZW1wZXJhdHVyZSBNb25pdG9yIjogMS41NjYsDQogICJQaG90byBEaW9kZSBWYWx1ZSI6IDAuNzk3LA0KICAiRU9NIEJpYXNpbmcgVmFsdWUgKGZpbmUpIjogMS41NDEsDQogICJFT00gQmlhc2luZyBWYWx1ZSAoZHJhZnQpIjogMC44MzYsDQogICJTeXN0ZW0gU3RhdHVzIjogIltMYXNlciBFbmFibGVkLCBFREZBIEVuYWJsZWQsIEVERkEgT24sIFN0YWJpbGl6YXRpb24gRW5hYmxlZCwgV2F0Y2hkb2cgRW5hYmxlZCwgS2V5IFR1cm4gT24sIE1lYXN1cmUgTW9kZV0iLA0KICAiQXR0ZW51YXRvciBQb3NpdGlvbiBWYWx1ZSI6IDEuOTUxLA0KICAiUHJvYmUgUG93ZXIgVmFsdWUiOiAyLjQwNSwNCiAgIkVPTSBQb3dlciBPdXRwdXQiOiAwLjA0NiwNCiAgIlRoZXJtaXN0b3IgVmFsdWUiOiAyNi41OSwNCiAgIkZpcm13YXJlIFZlcnNpb24iOiAidiAxMzAyMjYtMCIsDQogICJMYXNlciBUZW1wZXJhdHVyZSI6IDEuMTgyLA0KICAiSW50ZXJuYWwgRmliZXIgR2FpbiI6IDEzLjYwNzY2ODk3MTA3MTEsDQogICJQTE8gUG93ZXIgQW1wbGl0dWRlIjogMy45LA0KICAiQXV0by1DYWxpYnJhdGlvYiBQZXJmb3JtIjogIk5vbmUiLA0KICAiSW50ZXJuYWwgR2FpbiBQZXJmb3JtIjogIk1lYXN1cmVtZW50IENoYW5uZWwiDQp9	

[DATADESCRIPTION]
Nb of measurements	1
Distance unit	m
Data type	Temperature
Data unit	°C
Measurement Mode	Absolute

[DATA]	
0.012	217.66749	
0.172	219.07750	
0.333	218.86359	
0.493	215.68081	
0.653	216.25391	
0.813	216.85464	
0.973	40.71812	
1.133	40.74397	
1.293	40.55947	
1.453	40.83042	
1.613	40.68603	
1.773	41.12544	
1.933	40.99264	
2.093	40.97392	
2.253	40.94183	
2.414	40.78408	
2.574	40.57997	
2.734	40.17265	
2.894	39.75464	
3.054	39.99796	
3.214	40.01846	
3.374	40.16820	
3.534	40.07818	
3.694	40.03361	
3.854	40.30100	
4.014	39.94716	
4.174	39.69314	
4.334	39.42308	
4.494	39.40258	
4.655	39.56302	
4.815	39.36337	
4.975	39.25374	
5.135	38.92129	
5.295	38.51487	
5.455	38.60488	
5.615	40.60047	
5.775	43.58093	
5.935	40.36250	
6.095	37.81521	
6.255	38.34819	
6.415	38.30274	
6.575	38.67619	
6.735	38.88920	
6.896	38.57636	
7.056	38.26976	
7.216	38.08883	
7.376	38.59330	
7.536	38.74660	
7.696	38.85712	
7.856	39.03716	
8.016	39.14768	
8.176	39.04429	
8.336	38.98457	
8.496	38.91060	
8.656	38.79651	
8.816	38.81345	
8.977	38.97209	
9.137	38.99438	
9.297	39.00507	
9.457	39.18778	
9.617	39.15926	
9.777	39.19848	
9.937	39.18333	
10.097	39.33306	
10.257	39.35535	
10.417	39.11826	
10.577	38.83929	
10.737	39.04607	
10.897	38.83484	
11.057	38.55230	
11.218	38.89277	
11.378	38.79740	
11.538	38.62093	
11.698	38.89723	
11.858	38.75640	
12.018	38.72164	
12.178	38.68688	
12.338	38.93823	
12.498	38.93020	
12.658	39.03627	
12.818	39.04964	
12.978	38.96407	
13.138	39.20205	
13.299	39.13609	
13.459	39.46141	
13.619	39.08172	
13.779	38.67173	
13.939	38.90970	
14.099	39.03894	
14.259	39.07727	
14.419	39.07905	
14.579	38.81701	
14.739	38.70917	
14.899	38.73679	
15.059	38.62449	
15.219	38.61291	
15.379	38.52021	
15.540	38.72966	
15.700	38.55676	
15.860	38.59330	
16.020	38.79295	
16.180	38.61112	
16.340	38.72966	
16.500	38.76621	
16.660	38.61915	
16.820	38.47208	
16.980	38.51932	
17.140	38.49971	
17.300	38.31878	
17.460	38.48902	
17.621	38.71986	
17.781	38.34998	
17.941	38.19846	
18.101	38.42663	
18.261	38.28670	
18.421	37.90612	
18.581	38.05407	
18.741	37.98188	
18.901	38.19400	
19.061	38.35443	
19.221	38.48991	
19.381	38.46139	
19.541	38.46050	
19.701	38.47297	
19.862	38.51932	
