[FILEINFO]
Version	2.0
Type	Profile
Date	2002-02-08 21:01:50

[DITEST]
Serial Number	13ST0246B	
Type	STA-R	

[MEASUREMENT]
Date	2002-02-08 18:42:50	
Measurement duration (s)	47.328	
File Name	L - 15_2002_02_08_18_42_51 511	
Sensor name	Erick 002	
Sensor ID	'200201050546332081614	
Sensor Length (m)	20.00	
Sample Count	125	
Spatial Resolution (m)	1.0	
Sampling Interval (ns)	4	
Gain contrast (%)	100.00	
Averaging	1000	
Pulse Rate (kHz)	8.5	
Frequency start (GHz)	10.5807	
Frequency stop (GHz)	10.9487	
Frequency step set (MHz)	2	
Frequency step actual (MHz)	2.0	
Nb of frequency peak	1	
Sensor configuration	Loop	
Frequency scan mode	Automatic	

[MAINTENANCEINFO]
Internal	ew0KICAiRURGQSBTdGF0dXMgRXJyb3IiOiAiTm8gRXJyb3IiLA0KICAiTGFzZXIgTGltaXQgQ3VycmVudCBNb25pdG9yIjogMC42OTMsDQogICJMYXNlciBDdXJyZW50IE1vbml0b3IiOiAwLjY5MywNCiAgIkxhc2VyIFBvd2VyIE1vbml0b3IiOiAwLjAwNSwNCiAgIkxhc2VyIFRlbXBlcmF0dXJlIE1vbml0b3IiOiAxLjU2NCwNCiAgIkxhc2VyIFNldCBQb2ludCBUZW1wZXJhdHVyZSBNb25pdG9yIjogMS41NjYsDQogICJQaG90byBEaW9kZSBWYWx1ZSI6IDAuODA3LA0KICAiRU9NIEJpYXNpbmcgVmFsdWUgKGZpbmUpIjogMS41NzgsDQogICJFT00gQmlhc2luZyBWYWx1ZSAoZHJhZnQpIjogMC44MzYsDQogICJTeXN0ZW0gU3RhdHVzIjogIltMYXNlciBFbmFibGVkLCBFREZBIEVuYWJsZWQsIEVERkEgT24sIFN0YWJpbGl6YXRpb24gRW5hYmxlZCwgV2F0Y2hkb2cgRW5hYmxlZCwgS2V5IFR1cm4gT24sIE1lYXN1cmUgTW9kZV0iLA0KICAiQXR0ZW51YXRvciBQb3NpdGlvbiBWYWx1ZSI6IDEuOTUxLA0KICAiUHJvYmUgUG93ZXIgVmFsdWUiOiAyLjM3OSwNCiAgIkVPTSBQb3dlciBPdXRwdXQiOiAwLjA0OCwNCiAgIlRoZXJtaXN0b3IgVmFsdWUiOiAyNS44NCwNCiAgIkZpcm13YXJlIFZlcnNpb24iOiAidiAxMzAyMjYtMCIsDQogICJMYXNlciBUZW1wZXJhdHVyZSI6IDEuMTgyLA0KICAiSW50ZXJuYWwgRmliZXIgR2FpbiI6IDEzLjM0Njc4MjM2MzI4NzMsDQogICJQTE8gUG93ZXIgQW1wbGl0dWRlIjogMy45LA0KICAiQXV0by1DYWxpYnJhdGlvYiBQZXJmb3JtIjogIk5vbmUiLA0KICAiSW50ZXJuYWwgR2FpbiBQZXJmb3JtIjogIk1lYXN1cmVtZW50IENoYW5uZWwiDQp9	

[DATADESCRIPTION]
Nb of measurements	1
Distance unit	m
Data type	Temperature
Data unit	°C
Measurement Mode	Absolute

[DATA]	
0.012	216.88761	
0.172	218.07748	
0.333	218.08550	
0.493	214.95353	
0.653	215.21646	
0.813	216.24143	
0.973	40.52471	
1.133	40.53273	
1.293	40.49619	
1.453	40.77338	
1.613	40.72792	
1.773	40.81438	
1.933	40.83310	
2.093	40.77249	
2.253	40.64414	
2.414	40.32863	
2.574	40.01222	
2.734	40.03272	
2.894	39.68245	
3.054	39.67353	
3.214	40.03807	
3.374	40.12720	
3.534	39.80455	
3.694	39.84466	
3.854	40.21989	
4.014	39.62362	
4.174	39.35178	
4.334	39.17887	
4.494	39.01488	
4.655	38.96764	
4.815	39.09866	
4.975	38.85088	
5.135	38.57904	
5.295	38.27154	
5.455	38.86960	
5.615	43.83851	
5.775	50.89302	
5.935	43.60232	
6.095	37.42304	
6.255	38.69580	
6.415	38.08972	
6.575	38.17618	
6.735	38.44178	
6.896	38.20826	
7.056	37.84373	
7.216	38.25194	
7.376	38.33750	
7.536	38.51932	
7.696	39.06657	
7.856	38.96586	
8.016	39.09153	
8.176	39.03359	
8.336	39.16639	
8.496	38.92396	
8.656	38.83127	
8.816	38.94803	
8.977	39.32148	
9.137	39.01220	
9.297	39.22700	
9.457	39.29652	
9.617	39.18600	
9.777	39.17887	
9.937	39.45071	
10.097	39.34019	
10.257	39.37852	
10.417	39.23324	
10.577	38.97744	
10.737	39.04696	
10.897	38.93644	
11.057	38.87584	
11.218	38.69045	
11.378	38.81077	
11.538	38.87673	
11.698	38.68510	
11.858	38.83394	
12.018	39.01488	
12.178	38.78403	
12.338	39.08261	
12.498	38.99081	
12.658	38.99794	
12.818	39.14589	
12.978	39.31613	
13.138	39.04340	
13.299	39.11916	
13.459	39.36872	
13.619	39.01309	
13.779	38.57636	
13.939	38.92129	
14.099	39.08707	
14.259	38.88742	
14.419	38.95694	
14.579	38.76353	
14.739	38.75284	
14.899	38.48189	
15.059	38.66282	
15.219	38.43732	
15.379	38.26352	
15.540	38.40702	
15.700	38.33037	
15.860	38.37850	
16.020	38.70203	
16.180	38.58706	
16.340	38.25461	
16.500	38.58171	
16.660	38.45961	
16.820	38.03268	
16.980	38.00327	
17.140	38.29115	
17.300	37.77956	
17.460	38.01129	
17.621	38.16637	
17.781	37.97920	
17.941	37.78134	
18.101	37.98901	
18.261	37.56921	
18.421	37.11109	
18.581	37.42304	
18.741	37.25459	
18.901	37.16903	
19.061	37.69577	
19.221	37.78579	
19.381	37.68151	
19.541	37.81075	
19.701	37.86244	
19.862	37.71182	
