[FILEINFO]
Version	2.0
Type	Profile
Date	2002-02-08 21:00:15

[DITEST]
Serial Number	13ST0246B	
Type	STA-R	

[MEASUREMENT]
Date	2002-02-08 19:38:29	
Measurement duration (s)	47.306	
File Name	L - 65_2002_02_08_19_38_30 169	
Sensor name	Erick 002	
Sensor ID	'200201050546332081614	
Sensor Length (m)	20.00	
Sample Count	125	
Spatial Resolution (m)	1.0	
Sampling Interval (ns)	4	
Gain contrast (%)	100.00	
Averaging	1000	
Pulse Rate (kHz)	8.5	
Frequency start (GHz)	10.5807	
Frequency stop (GHz)	10.9507	
Frequency step set (MHz)	2	
Frequency step actual (MHz)	2.0	
Nb of frequency peak	1	
Sensor configuration	Loop	
Frequency scan mode	Automatic	

[MAINTENANCEINFO]
Internal	ew0KICAiRURGQSBTdGF0dXMgRXJyb3IiOiAiTm8gRXJyb3IiLA0KICAiTGFzZXIgTGltaXQgQ3VycmVudCBNb25pdG9yIjogMC42OTMsDQogICJMYXNlciBDdXJyZW50IE1vbml0b3IiOiAwLjY5MywNCiAgIkxhc2VyIFBvd2VyIE1vbml0b3IiOiAwLjAwNiwNCiAgIkxhc2VyIFRlbXBlcmF0dXJlIE1vbml0b3IiOiAxLjU2NCwNCiAgIkxhc2VyIFNldCBQb2ludCBUZW1wZXJhdHVyZSBNb25pdG9yIjogMS41NjYsDQogICJQaG90byBEaW9kZSBWYWx1ZSI6IDAuNzksDQogICJFT00gQmlhc2luZyBWYWx1ZSAoZmluZSkiOiAxLjU4MSwNCiAgIkVPTSBCaWFzaW5nIFZhbHVlIChkcmFmdCkiOiAwLjgzNiwNCiAgIlN5c3RlbSBTdGF0dXMiOiAiW0xhc2VyIEVuYWJsZWQsIEVERkEgRW5hYmxlZCwgRURGQSBPbiwgU3RhYmlsaXphdGlvbiBFbmFibGVkLCBXYXRjaGRvZyBFbmFibGVkLCBLZXkgVHVybiBPbiwgTWVhc3VyZSBNb2RlXSIsDQogICJBdHRlbnVhdG9yIFBvc2l0aW9uIFZhbHVlIjogMS45NTEsDQogICJQcm9iZSBQb3dlciBWYWx1ZSI6IDIuMzg0LA0KICAiRU9NIFBvd2VyIE91dHB1dCI6IDAuMDQ3LA0KICAiVGhlcm1pc3RvciBWYWx1ZSI6IDI2LjQ0LA0KICAiRmlybXdhcmUgVmVyc2lvbiI6ICJ2IDEzMDIyNi0wIiwNCiAgIkxhc2VyIFRlbXBlcmF0dXJlIjogMS4xODIsDQogICJJbnRlcm5hbCBGaWJlciBHYWluIjogMTMuNDMxNjMwNDkzMzkwNywNCiAgIlBMTyBQb3dlciBBbXBsaXR1ZGUiOiAzLjksDQogICJBdXRvLUNhbGlicmF0aW9iIFBlcmZvcm0iOiAiTm9uZSIsDQogICJJbnRlcm5hbCBHYWluIFBlcmZvcm0iOiAiTWVhc3VyZW1lbnQgQ2hhbm5lbCINCn0=	

[DATADESCRIPTION]
Nb of measurements	1
Distance unit	m
Data type	Temperature
Data unit	°C
Measurement Mode	Absolute

[DATA]	
0.012	217.34395	
0.172	219.14880	
0.333	219.11493	
0.493	215.51682	
0.653	216.35373	
0.813	216.75659	
0.973	40.71099	
1.133	40.93559	
1.293	41.00779	
1.453	40.73951	
1.613	40.71545	
1.773	40.53452	
1.933	40.72614	
2.093	40.66999	
2.253	40.61295	
2.414	40.88479	
2.574	40.42400	
2.734	40.21811	
2.894	40.24663	
3.054	40.11829	
3.214	40.10135	
3.374	40.27783	
3.534	40.42043	
3.694	40.22881	
3.854	40.25733	
4.014	39.89368	
4.174	39.82594	
4.334	39.57995	
4.494	39.61560	
4.655	39.84823	
4.815	39.52202	
4.975	39.55410	
5.135	39.10757	
5.295	38.89099	
5.455	38.82414	
5.615	40.33576	
5.775	42.43741	
5.935	39.99618	
6.095	38.05496	
6.255	38.53804	
6.415	38.67619	
6.575	38.94625	
6.735	39.21452	
6.896	38.99883	
7.056	38.49704	
7.216	38.45158	
7.376	38.82949	
7.536	39.31880	
7.696	39.46943	
7.856	39.46943	
8.016	39.19492	
8.176	39.41595	
8.336	39.27157	
8.496	39.14768	
8.656	39.03894	
8.816	38.99883	
8.977	39.38298	
9.137	39.25285	
9.297	39.35000	
9.457	39.36248	
9.617	39.41150	
9.777	39.38208	
9.937	39.18155	
10.097	39.51756	
10.257	39.72077	
10.417	39.10311	
10.577	39.14500	
10.737	39.20115	
10.897	38.95338	
11.057	38.86425	
11.218	39.12272	
11.378	39.17531	
11.538	38.89544	
11.698	39.06924	
11.858	39.04429	
12.018	38.85623	
12.178	39.11292	
12.338	39.19581	
12.498	39.02201	
12.658	39.34822	
12.818	39.63164	
12.978	39.38832	
13.138	39.33752	
13.299	39.61649	
13.459	39.39011	
13.619	39.05409	
13.779	39.06746	
13.939	39.12183	
14.099	39.15570	
14.259	39.42665	
14.419	39.20739	
14.579	38.92307	
14.739	38.88564	
14.899	38.84642	
15.059	38.68688	
15.219	38.79205	
15.379	38.70382	
15.540	38.76353	
15.700	38.60043	
15.860	38.89990	
16.020	38.92129	
16.180	38.74660	
16.340	38.64588	
16.500	38.92129	
16.660	38.77245	
16.820	38.42485	
16.980	38.65391	
17.140	38.68777	
17.300	38.53091	
17.460	38.60488	
17.621	38.64232	
17.781	38.50417	
17.941	38.52378	
18.101	38.52734	
18.261	38.53269	
18.421	38.25907	
18.581	38.08705	
18.741	38.17885	
18.901	38.35711	
19.061	38.45426	
19.221	38.62628	
19.381	38.63608	
19.541	38.80186	
19.701	38.48813	
19.862	38.76799	
