[FILEINFO]
Version	2.0
Type	Profile
Date	2002-02-08 20:59:19

[DITEST]
Serial Number	13ST0246B	
Type	STA-R	

[MEASUREMENT]
Date	2002-02-08 20:03:43	
Measurement duration (s)	46.774	
File Name	L - 90_2002_02_08_20_03_44 148	
Sensor name	Erick 002	
Sensor ID	'200201050546332081614	
Sensor Length (m)	20.00	
Sample Count	125	
Spatial Resolution (m)	1.0	
Sampling Interval (ns)	4	
Gain contrast (%)	100.00	
Averaging	1000	
Pulse Rate (kHz)	8.5	
Frequency start (GHz)	10.5807	
Frequency stop (GHz)	10.9527	
Frequency step set (MHz)	2	
Frequency step actual (MHz)	2.0	
Nb of frequency peak	1	
Sensor configuration	Loop	
Frequency scan mode	Automatic	

[MAINTENANCEINFO]
Internal	ew0KICAiRURGQSBTdGF0dXMgRXJyb3IiOiAiTm8gRXJyb3IiLA0KICAiTGFzZXIgTGltaXQgQ3VycmVudCBNb25pdG9yIjogMC42OTMsDQogICJMYXNlciBDdXJyZW50IE1vbml0b3IiOiAwLjY5MywNCiAgIkxhc2VyIFBvd2VyIE1vbml0b3IiOiAwLjAwNSwNCiAgIkxhc2VyIFRlbXBlcmF0dXJlIE1vbml0b3IiOiAxLjU2NCwNCiAgIkxhc2VyIFNldCBQb2ludCBUZW1wZXJhdHVyZSBNb25pdG9yIjogMS41NjYsDQogICJQaG90byBEaW9kZSBWYWx1ZSI6IDAuODA3LA0KICAiRU9NIEJpYXNpbmcgVmFsdWUgKGZpbmUpIjogMS41MzQsDQogICJFT00gQmlhc2luZyBWYWx1ZSAoZHJhZnQpIjogMC44MzYsDQogICJTeXN0ZW0gU3RhdHVzIjogIltMYXNlciBFbmFibGVkLCBFREZBIEVuYWJsZWQsIEVERkEgT24sIFN0YWJpbGl6YXRpb24gRW5hYmxlZCwgV2F0Y2hkb2cgRW5hYmxlZCwgS2V5IFR1cm4gT24sIE1lYXN1cmUgTW9kZV0iLA0KICAiQXR0ZW51YXRvciBQb3NpdGlvbiBWYWx1ZSI6IDEuOTUxLA0KICAiUHJvYmUgUG93ZXIgVmFsdWUiOiAyLjM2MiwNCiAgIkVPTSBQb3dlciBPdXRwdXQiOiAwLjA0NywNCiAgIlRoZXJtaXN0b3IgVmFsdWUiOiAyNy4xLA0KICAiRmlybXdhcmUgVmVyc2lvbiI6ICJ2IDEzMDIyNi0wIiwNCiAgIkxhc2VyIFRlbXBlcmF0dXJlIjogMS4xODIsDQogICJJbnRlcm5hbCBGaWJlciBHYWluIjogMTMuMzE3OTM5NjI2MTA4MywNCiAgIlBMTyBQb3dlciBBbXBsaXR1ZGUiOiAzLjksDQogICJBdXRvLUNhbGlicmF0aW9iIFBlcmZvcm0iOiAiTm9uZSIsDQogICJJbnRlcm5hbCBHYWluIFBlcmZvcm0iOiAiTWVhc3VyZW1lbnQgQ2hhbm5lbCINCn0=	

[DATADESCRIPTION]
Nb of measurements	1
Distance unit	m
Data type	Temperature
Data unit	°C
Measurement Mode	Absolute

[DATA]	
0.012	219.38945	
0.172	220.48573	
0.333	220.37521	
0.493	217.40099	
0.653	217.73255	
0.813	218.51599	
0.973	41.16376	
1.133	41.92046	
1.293	42.34828	
1.453	42.13794	
1.613	42.45523	
1.773	42.32243	
1.933	42.49534	
2.093	42.62279	
2.253	42.57556	
2.414	42.78144	
2.574	42.52564	
2.734	42.34204	
2.894	42.15220	
3.054	42.28054	
3.214	42.17626	
3.374	42.50604	
3.534	42.67449	
3.694	42.35095	
3.854	42.28054	
4.014	41.79390	
4.174	41.38480	
4.334	41.17446	
4.494	41.42223	
4.655	41.80281	
4.815	41.73508	
4.975	41.61208	
5.135	41.19050	
5.295	40.65395	
5.455	40.32150	
5.615	41.15574	
5.775	42.06218	
5.935	40.82953	
6.095	39.81168	
6.255	39.79208	
6.415	40.00866	
6.575	40.32863	
6.735	40.87409	
6.896	40.66197	
7.056	39.77247	
7.216	39.95340	
7.376	40.28585	
7.536	40.75823	
7.696	40.97570	
7.856	40.38478	
8.016	40.60047	
8.176	40.55502	
8.336	40.55591	
8.496	40.25287	
8.656	40.16552	
8.816	40.27159	
8.977	40.48995	
9.137	40.43558	
9.297	40.35626	
9.457	40.35002	
9.617	40.51936	
9.777	40.35002	
9.937	40.42934	
10.097	40.71099	
10.257	40.81171	
10.417	40.21900	
10.577	40.20296	
10.737	40.30546	
10.897	40.07194	
11.057	39.93914	
11.218	40.07283	
11.378	40.09868	
11.538	39.97212	
11.698	39.95072	
11.858	40.14502	
12.018	39.96053	
12.178	40.07105	
12.338	40.20920	
12.498	39.95964	
12.658	40.27515	
12.818	40.34913	
12.978	40.19226	
13.138	40.18335	
13.299	40.29922	
13.459	40.20028	
13.619	39.92933	
13.779	39.76088	
13.939	39.85625	
14.099	39.78049	
14.259	39.85536	
14.419	40.14948	
14.579	39.38654	
14.739	39.52736	
14.899	39.77247	
15.059	39.32059	
15.219	39.36693	
15.379	39.54697	
15.540	39.33039	
15.700	39.28672	
15.860	39.50776	
16.020	39.42130	
16.180	39.15213	
16.340	39.31969	
16.500	39.42932	
16.660	38.98368	
16.820	38.97120	
16.980	39.09955	
17.140	39.02111	
17.300	39.01666	
17.460	39.11024	
17.621	39.08083	
17.781	39.10311	
17.941	38.98814	
18.101	39.21452	
18.261	38.77958	
18.421	38.78760	
18.581	38.69490	
18.741	38.72521	
18.901	39.01844	
19.061	39.01131	
19.221	39.02824	
19.381	39.28137	
19.541	39.37228	
19.701	39.28939	
19.862	39.36069	
