[FILEINFO]
Version	2.0
Type	Profile
Date	2002-02-08 21:00:03

[DITEST]
Serial Number	13ST0246B	
Type	STA-R	

[MEASUREMENT]
Date	2002-02-08 19:43:28	
Measurement duration (s)	46.926	
File Name	L - 70_2002_02_08_19_43_29 135	
Sensor name	Erick 002	
Sensor ID	'200201050546332081614	
Sensor Length (m)	20.00	
Sample Count	125	
Spatial Resolution (m)	1.0	
Sampling Interval (ns)	4	
Gain contrast (%)	100.00	
Averaging	1000	
Pulse Rate (kHz)	8.5	
Frequency start (GHz)	10.5807	
Frequency stop (GHz)	10.9527	
Frequency step set (MHz)	2	
Frequency step actual (MHz)	2.0	
Nb of frequency peak	1	
Sensor configuration	Loop	
Frequency scan mode	Automatic	

[MAINTENANCEINFO]
Internal	ew0KICAiRURGQSBTdGF0dXMgRXJyb3IiOiAiTm8gRXJyb3IiLA0KICAiTGFzZXIgTGltaXQgQ3VycmVudCBNb25pdG9yIjogMC42OTMsDQogICJMYXNlciBDdXJyZW50IE1vbml0b3IiOiAwLjY5MywNCiAgIkxhc2VyIFBvd2VyIE1vbml0b3IiOiAwLjAwNSwNCiAgIkxhc2VyIFRlbXBlcmF0dXJlIE1vbml0b3IiOiAxLjU2NCwNCiAgIkxhc2VyIFNldCBQb2ludCBUZW1wZXJhdHVyZSBNb25pdG9yIjogMS41NjYsDQogICJQaG90byBEaW9kZSBWYWx1ZSI6IDAuNzg5LA0KICAiRU9NIEJpYXNpbmcgVmFsdWUgKGZpbmUpIjogMS41ODYsDQogICJFT00gQmlhc2luZyBWYWx1ZSAoZHJhZnQpIjogMC44MzYsDQogICJTeXN0ZW0gU3RhdHVzIjogIltMYXNlciBFbmFibGVkLCBFREZBIEVuYWJsZWQsIEVERkEgT24sIFN0YWJpbGl6YXRpb24gRW5hYmxlZCwgV2F0Y2hkb2cgRW5hYmxlZCwgS2V5IFR1cm4gT24sIE1lYXN1cmUgTW9kZV0iLA0KICAiQXR0ZW51YXRvciBQb3NpdGlvbiBWYWx1ZSI6IDEuOTUxLA0KICAiUHJvYmUgUG93ZXIgVmFsdWUiOiAyLjM5NCwNCiAgIkVPTSBQb3dlciBPdXRwdXQiOiAwLjA0NSwNCiAgIlRoZXJtaXN0b3IgVmFsdWUiOiAyNi40NywNCiAgIkZpcm13YXJlIFZlcnNpb24iOiAidiAxMzAyMjYtMCIsDQogICJMYXNlciBUZW1wZXJhdHVyZSI6IDEuMTgyLA0KICAiSW50ZXJuYWwgRmliZXIgR2FpbiI6IDEzLjQ5NDUyMjU0Nzk1NzksDQogICJQTE8gUG93ZXIgQW1wbGl0dWRlIjogMy45LA0KICAiQXV0by1DYWxpYnJhdGlvYiBQZXJmb3JtIjogIk5vbmUiLA0KICAiSW50ZXJuYWwgR2FpbiBQZXJmb3JtIjogIk1lYXN1cmVtZW50IENoYW5uZWwiDQp9	

[DATADESCRIPTION]
Nb of measurements	1
Distance unit	m
Data type	Temperature
Data unit	°C
Measurement Mode	Absolute

[DATA]	
0.012	217.90724	
0.172	219.86629	
0.333	219.47590	
0.493	216.41969	
0.653	216.53556	
0.813	217.22898	
0.973	40.90172	
1.133	41.27696	
1.293	41.02650	
1.453	41.21189	
1.613	41.01314	
1.773	40.95342	
1.933	41.05235	
2.093	41.13257	
2.253	41.10494	
2.414	41.28319	
2.574	40.81616	
2.734	40.70653	
2.894	40.63790	
3.054	40.42132	
3.214	40.45252	
3.374	40.80547	
3.534	40.77784	
3.694	40.56304	
3.854	40.69406	
4.014	40.34824	
4.174	40.04787	
4.334	39.97033	
4.494	40.18513	
4.655	40.23148	
4.815	40.30813	
4.975	40.01757	
5.135	39.60045	
5.295	39.15570	
5.455	38.94714	
5.615	40.51758	
5.775	42.41156	
5.935	40.28496	
6.095	38.38474	
6.255	38.80542	
6.415	38.99170	
6.575	39.45784	
6.735	39.58797	
6.896	39.44447	
7.056	38.72877	
7.216	38.87673	
7.376	39.38476	
7.536	39.62808	
7.696	39.79921	
7.856	39.74662	
8.016	39.63432	
8.176	39.69225	
8.336	39.60134	
8.496	39.42487	
8.656	39.39011	
8.816	39.41774	
8.977	39.54697	
9.137	39.56391	
9.297	39.42665	
9.457	39.59688	
9.617	39.54341	
9.777	39.61649	
9.937	39.55856	
10.097	39.74395	
10.257	39.77068	
10.417	39.47478	
10.577	39.39456	
10.737	39.39189	
10.897	39.14946	
11.057	39.21185	
11.218	39.22789	
11.378	39.14589	
11.538	39.11113	
11.698	39.34109	
11.858	39.31167	
12.018	39.14500	
12.178	39.21096	
12.338	39.38298	
12.498	39.31078	
12.658	39.54341	
12.818	39.75019	
12.978	39.47478	
13.138	39.59154	
13.299	39.51756	
13.459	39.80099	
13.619	39.42843	
13.779	39.27691	
13.939	39.42130	
14.099	39.39724	
14.259	39.43556	
14.419	39.33217	
14.579	39.05498	
14.739	39.02201	
14.899	39.30989	
15.059	38.96496	
15.219	38.89544	
15.379	38.90168	
15.540	38.79829	
15.700	38.82592	
15.860	39.20205	
16.020	39.12718	
16.180	38.86960	
16.340	38.90614	
16.500	39.12272	
16.660	38.82147	
16.820	38.54963	
16.980	38.73769	
17.140	38.73769	
17.300	38.67797	
17.460	38.74393	
17.621	38.90792	
17.781	38.71540	
17.941	38.63608	
18.101	38.54160	
18.261	38.44445	
18.421	38.27867	
18.581	38.25728	
18.741	38.33483	
18.901	38.40613	
19.061	38.66460	
19.221	38.63251	
19.381	38.68332	
19.541	38.75997	
19.701	38.63697	
19.862	38.87940	
