[FILEINFO]
Version	2.0
Type	Profile
Date	2002-02-08 21:02:22

[DITEST]
Serial Number	13ST0246B	
Type	STA-R	

[MEASUREMENT]
Date	2002-02-08 18:32:48	
Measurement duration (s)	48.917	
File Name	L - 05 _2002_02_08_18_32_49 036	
Sensor name	Erick 002	
Sensor ID	'200201050546332081614	
Sensor Length (m)	20.00	
Sample Count	125	
Spatial Resolution (m)	1.0	
Sampling Interval (ns)	4	
Gain contrast (%)	100.00	
Averaging	1000	
Pulse Rate (kHz)	8.5	
Frequency start (GHz)	10.5807	
Frequency stop (GHz)	10.9507	
Frequency step set (MHz)	2	
Frequency step actual (MHz)	2.0	
Nb of frequency peak	1	
Sensor configuration	Loop	
Frequency scan mode	Automatic	

[MAINTENANCEINFO]
Internal	ew0KICAiRURGQSBTdGF0dXMgRXJyb3IiOiAiTm8gRXJyb3IiLA0KICAiTGFzZXIgTGltaXQgQ3VycmVudCBNb25pdG9yIjogMC42OTMsDQogICJMYXNlciBDdXJyZW50IE1vbml0b3IiOiAwLjY5MywNCiAgIkxhc2VyIFBvd2VyIE1vbml0b3IiOiAwLjAwNiwNCiAgIkxhc2VyIFRlbXBlcmF0dXJlIE1vbml0b3IiOiAxLjU2NCwNCiAgIkxhc2VyIFNldCBQb2ludCBUZW1wZXJhdHVyZSBNb25pdG9yIjogMS41NjYsDQogICJQaG90byBEaW9kZSBWYWx1ZSI6IDAuODA1LA0KICAiRU9NIEJpYXNpbmcgVmFsdWUgKGZpbmUpIjogMS41NzUsDQogICJFT00gQmlhc2luZyBWYWx1ZSAoZHJhZnQpIjogMC44MzYsDQogICJTeXN0ZW0gU3RhdHVzIjogIltMYXNlciBFbmFibGVkLCBFREZBIEVuYWJsZWQsIEVERkEgT24sIFN0YWJpbGl6YXRpb24gRW5hYmxlZCwgV2F0Y2hkb2cgRW5hYmxlZCwgS2V5IFR1cm4gT24sIE1lYXN1cmUgTW9kZV0iLA0KICAiQXR0ZW51YXRvciBQb3NpdGlvbiBWYWx1ZSI6IDEuOTUxLA0KICAiUHJvYmUgUG93ZXIgVmFsdWUiOiAyLjM5NiwNCiAgIkVPTSBQb3dlciBPdXRwdXQiOiAwLjA0NywNCiAgIlRoZXJtaXN0b3IgVmFsdWUiOiAyNS4zOSwNCiAgIkZpcm13YXJlIFZlcnNpb24iOiAidiAxMzAyMjYtMCIsDQogICJMYXNlciBUZW1wZXJhdHVyZSI6IDEuMTgyLA0KICAiSW50ZXJuYWwgRmliZXIgR2FpbiI6IDEzLjU0MTU5NjQ1MDQyOCwNCiAgIlBMTyBQb3dlciBBbXBsaXR1ZGUiOiAzLjksDQogICJBdXRvLUNhbGlicmF0aW9iIFBlcmZvcm0iOiAiTm9uZSIsDQogICJJbnRlcm5hbCBHYWluIFBlcmZvcm0iOiAiTWVhc3VyZW1lbnQgQ2hhbm5lbCINCn0=	

[DATADESCRIPTION]
Nb of measurements	1
Distance unit	m
Data type	Temperature
Data unit	°C
Measurement Mode	Absolute

[DATA]	
0.012	216.86177	
0.172	218.69336	
0.333	218.26287	
0.493	215.50345	
0.653	215.75033	
0.813	216.55606	
0.973	40.91242	
1.133	40.83933	
1.293	40.86696	
1.453	40.85270	
1.613	40.81616	
1.773	40.73149	
1.933	40.53808	
2.093	40.60671	
2.253	40.87677	
2.414	41.26715	
2.574	41.14772	
2.734	40.97481	
2.894	40.74486	
3.054	40.53184	
3.214	40.53630	
3.374	40.88479	
3.534	41.20298	
3.694	40.78051	
3.854	40.51669	
4.014	39.86338	
4.174	39.40258	
4.334	39.29028	
4.494	39.68067	
4.655	39.76979	
4.815	39.84912	
4.975	39.61114	
5.135	39.41863	
5.295	39.03627	
5.455	39.77158	
5.615	46.15228	
5.775	55.38421	
5.935	44.80733	
6.095	37.83214	
6.255	38.94001	
6.415	38.25104	
6.575	38.55052	
6.735	38.64499	
6.896	38.51487	
7.056	37.93553	
7.216	38.19044	
7.376	38.24837	
7.536	38.60845	
7.696	39.32772	
7.856	39.07459	
8.016	38.97388	
8.176	38.96586	
8.336	39.05053	
8.496	38.91060	
8.656	38.61380	
8.816	38.95427	
8.977	39.29830	
9.137	39.08440	
9.297	39.06122	
9.457	39.30454	
9.617	39.10668	
9.777	39.02468	
9.937	39.32861	
10.097	39.20026	
10.257	39.36604	
10.417	39.05231	
10.577	38.80453	
10.737	38.87762	
10.897	38.82860	
11.057	38.79918	
11.218	38.69669	
11.378	38.84910	
11.538	38.69580	
11.698	38.58439	
11.858	38.91060	
12.018	38.71362	
12.178	38.70025	
12.338	38.77869	
12.498	38.84197	
12.658	38.74571	
12.818	38.98012	
12.978	39.12896	
13.138	38.96407	
13.299	38.75016	
13.459	39.07459	
13.619	38.97299	
13.779	38.35889	
13.939	38.57012	
14.099	38.75373	
14.259	38.75640	
14.419	38.65034	
14.579	38.65391	
14.739	38.44980	
14.899	38.32502	
15.059	38.54963	
15.219	38.30452	
15.379	38.09507	
15.540	38.37315	
15.700	38.12537	
15.860	38.19489	
16.020	38.57458	
16.180	38.43643	
16.340	38.29650	
16.500	38.43554	
16.660	38.36156	
16.820	38.01485	
16.980	38.09061	
17.140	38.29561	
17.300	37.90968	
17.460	37.99079	
17.621	38.19133	
17.781	37.96940	
17.941	37.75638	
18.101	37.94088	
18.261	37.62804	
18.421	37.32144	
18.581	37.46671	
18.741	37.30807	
18.901	37.40700	
19.061	37.75103	
19.221	37.84195	
19.381	37.71538	
19.541	38.00683	
19.701	37.93464	
19.862	37.79827	
