[FILEINFO]
Version	2.0
Type	Profile
Date	2002-02-08 20:59:41

[DITEST]
Serial Number	13ST0246B	
Type	STA-R	

[MEASUREMENT]
Date	2002-02-08 19:53:37	
Measurement duration (s)	47.099	
File Name	L - 80_2002_02_08_19_53_38 107	
Sensor name	Erick 002	
Sensor ID	'200201050546332081614	
Sensor Length (m)	20.00	
Sample Count	125	
Spatial Resolution (m)	1.0	
Sampling Interval (ns)	4	
Gain contrast (%)	100.00	
Averaging	1000	
Pulse Rate (kHz)	8.5	
Frequency start (GHz)	10.5807	
Frequency stop (GHz)	10.9527	
Frequency step set (MHz)	2	
Frequency step actual (MHz)	2.0	
Nb of frequency peak	1	
Sensor configuration	Loop	
Frequency scan mode	Automatic	

[MAINTENANCEINFO]
Internal	ew0KICAiRURGQSBTdGF0dXMgRXJyb3IiOiAiTm8gRXJyb3IiLA0KICAiTGFzZXIgTGltaXQgQ3VycmVudCBNb25pdG9yIjogMC42OTMsDQogICJMYXNlciBDdXJyZW50IE1vbml0b3IiOiAwLjY5MywNCiAgIkxhc2VyIFBvd2VyIE1vbml0b3IiOiAwLjAwNiwNCiAgIkxhc2VyIFRlbXBlcmF0dXJlIE1vbml0b3IiOiAxLjU2NCwNCiAgIkxhc2VyIFNldCBQb2ludCBUZW1wZXJhdHVyZSBNb25pdG9yIjogMS41NjYsDQogICJQaG90byBEaW9kZSBWYWx1ZSI6IDAuNzksDQogICJFT00gQmlhc2luZyBWYWx1ZSAoZmluZSkiOiAxLjUzNSwNCiAgIkVPTSBCaWFzaW5nIFZhbHVlIChkcmFmdCkiOiAwLjgzNiwNCiAgIlN5c3RlbSBTdGF0dXMiOiAiW0xhc2VyIEVuYWJsZWQsIEVERkEgRW5hYmxlZCwgRURGQSBPbiwgU3RhYmlsaXphdGlvbiBFbmFibGVkLCBXYXRjaGRvZyBFbmFibGVkLCBLZXkgVHVybiBPbiwgTWVhc3VyZSBNb2RlXSIsDQogICJBdHRlbnVhdG9yIFBvc2l0aW9uIFZhbHVlIjogMS45NTEsDQogICJQcm9iZSBQb3dlciBWYWx1ZSI6IDIuNCwNCiAgIkVPTSBQb3dlciBPdXRwdXQiOiAwLjA0NiwNCiAgIlRoZXJtaXN0b3IgVmFsdWUiOiAyNi43OCwNCiAgIkZpcm13YXJlIFZlcnNpb24iOiAidiAxMzAyMjYtMCIsDQogICJMYXNlciBUZW1wZXJhdHVyZSI6IDEuMTgyLA0KICAiSW50ZXJuYWwgRmliZXIgR2FpbiI6IDEzLjU1NDg2NzUxNzgzMDEsDQogICJQTE8gUG93ZXIgQW1wbGl0dWRlIjogMy45LA0KICAiQXV0by1DYWxpYnJhdGlvYiBQZXJmb3JtIjogIk5vbmUiLA0KICAiSW50ZXJuYWwgR2FpbiBQZXJmb3JtIjogIk1lYXN1cmVtZW50IENoYW5uZWwiDQp9	

[DATADESCRIPTION]
Nb of measurements	1
Distance unit	m
Data type	Temperature
Data unit	°C
Measurement Mode	Absolute

[DATA]	
0.012	218.36893	
0.172	220.03207	
0.333	219.64881	
0.493	216.31006	
0.653	216.83681	
0.813	217.93220	
0.973	41.93918	
1.133	41.77073	
1.293	41.89996	
1.453	41.60049	
1.613	41.88927	
1.773	41.72973	
1.933	41.86164	
2.093	41.78588	
2.253	41.95611	
2.414	42.04257	
2.574	41.76894	
2.734	41.63614	
2.894	41.35004	
3.054	41.35271	
3.214	41.46947	
3.374	41.68873	
3.534	41.83401	
3.694	41.45789	
3.854	41.52295	
4.014	41.13346	
4.174	40.72169	
4.334	40.55947	
4.494	40.69673	
4.655	40.84736	
4.815	40.91777	
4.975	40.63434	
5.135	40.36428	
5.295	39.83931	
5.455	39.68780	
5.615	40.66732	
5.775	42.21815	
5.935	40.67534	
6.095	39.19492	
6.255	39.54341	
6.415	39.62273	
6.575	39.99618	
6.735	40.31615	
6.896	40.12631	
7.056	39.52291	
7.216	39.56391	
7.376	39.99707	
7.536	40.26000	
7.696	40.51402	
7.856	40.28674	
8.016	40.21989	
8.176	40.20920	
8.336	40.40706	
8.496	40.14324	
8.656	39.90527	
8.816	40.13611	
8.977	40.11918	
9.137	40.20296	
9.297	40.30100	
9.457	40.03451	
9.617	40.23594	
9.777	40.19315	
9.937	40.14146	
10.097	40.44004	
10.257	40.46678	
10.417	40.16196	
10.577	39.95607	
10.737	39.98281	
10.897	39.67799	
11.057	39.80634	
11.218	39.84466	
11.378	39.89012	
11.538	39.71988	
11.698	39.86694	
11.858	39.78940	
12.018	39.71186	
12.178	39.92577	
12.338	40.00242	
12.498	39.88210	
12.658	40.10581	
12.818	40.21722	
12.978	39.98459	
13.138	40.11026	
13.299	40.23683	
13.459	40.05590	
13.619	39.79831	
13.779	39.71275	
13.939	39.98638	
14.099	39.66551	
14.259	39.99618	
14.419	39.98014	
14.579	39.62273	
14.739	39.55410	
14.899	39.76979	
15.059	39.30187	
15.219	39.37050	
15.379	39.44091	
15.540	39.39635	
15.700	39.24483	
15.860	39.34376	
16.020	39.43111	
16.180	39.33752	
16.340	39.35802	
16.500	39.33930	
16.660	39.27157	
16.820	38.95872	
16.980	39.13876	
17.140	38.97655	
17.300	38.99081	
17.460	38.94090	
17.621	39.00864	
17.781	39.00864	
17.941	38.67351	
18.101	38.98101	
18.261	38.82503	
18.421	38.33750	
18.581	38.31522	
18.741	38.27511	
18.901	38.69847	
19.061	38.68688	
19.221	38.89990	
19.381	39.22968	
19.541	39.07994	
19.701	39.08974	
19.862	39.23591	
